Start,Peak,End,Duration,LOCAbsValPeak,ROCAbsValPeak,LOCAbsRiseSlope,ROCAbsRiseSlope,LOCAbsFallSlope,ROCAbsFallSlope,Stage
1733.21875,1733.3515625,1733.4609375,0.2421875,65.21810180928946,51.2430834315189,550.1876008327307,340.1515162152359,550.1599485347807,419.58081540083646,W
1736.453125,1736.546875,1736.6171875,0.1640625,52.28137239518562,41.35464813075014,539.5975092943496,480.0416881535172,706.0247891649583,515.5198073194993,W
3068.890625,3068.984375,3069.078125,0.1875,34.855506901867614,48.749818706556866,445.14619088499126,453.39077152483236,224.6831996942059,557.0204087577437,W
3941.9609375,3942.2734375,3942.4140625,0.453125,53.97249709611805,28.49689595780477,170.9644033550844,94.89216047304797,469.9839031686137,96.66315165091213,W
8085.296875,8106.1875,8159.734375,74.4375,62.105812359398044,28.600868558159057,1.5260796433691846,0.949992487931436,0.715891876686937,0.6218157047605978,W
8085.296875,8106.46875,8159.734375,74.4375,62.391661412550704,34.91621448468735,1.5193083561523026,1.235662063219292,0.7250383692601652,0.7436622351165678,W
8085.296875,8106.734375,8159.734375,74.4375,67.65905506187246,27.633638982205973,1.7461924315910808,0.8806394048858109,0.8280568969234953,0.609982230941501,W
8085.296875,8107.0234375,8159.734375,74.4375,64.93856814782114,26.815719232109757,1.5977453100637744,0.8312768065423767,0.7809864626842186,0.597810245545402,W
8085.296875,8107.65625,8159.734375,74.4375,68.84003893793029,33.0995291714767,1.7270153628306524,1.0887870269857858,0.8653921279424532,0.7257355833984093,W
8085.296875,8108.46875,8159.734375,74.4375,85.61102561818991,22.776679232832883,2.3902239593710584,0.6051192444662542,1.2062466046841855,0.535877568849038,W
8085.296875,8109.203125,8159.734375,74.4375,66.87766023797927,21.89091898794625,1.5331808806626133,0.5494792051442552,0.8530487710684389,0.5261365639211345,W
8085.296875,8114.3828125,8159.734375,74.4375,76.77669495212753,24.832985144193145,1.600486150480412,0.5527775545906589,1.1687503694542016,0.6511000453818262,W
8085.296875,8122.515625,8159.734375,74.4375,76.8027355695929,35.254746404859006,1.2514574175638415,0.7120017374278449,1.4248381808810258,1.0733881622180375,W
8085.296875,8153.328125,8159.734375,74.4375,126.25466319827011,28.38354304323438,1.4115514324465805,0.28852345507789406,15.997287597790109,5.1635453347789975,W
8085.296875,8159.6328125,8159.734375,74.4375,235.7115811962662,55.75111896553802,2.764295888332982,0.6322135538489928,2086.7893333793377,595.1659148133573,W
8159.765625,8159.890625,8159.9609375,0.1953125,275.0702153308105,64.07940524967242,2093.3010162222367,581.2456075444907,3366.2943606820145,777.9287027735522,W
8159.96875,8160.015625,8160.0859375,0.1171875,132.4672986669214,31.86300721546071,2947.962099654637,713.2714941518616,1524.4590612515924,377.82446740228835,W
8160.09375,8161.3515625,8161.3828125,1.2890625,189.02354563026498,42.02565723380482,155.20862582229438,33.97543847713733,3492.4369988679036,876.2210256885933,W
8161.390625,8161.453125,8161.5390625,0.1484375,437.8568362652503,109.74919125384818,7532.361992743095,1805.227984238924,4049.1141925284105,1066.1221074768691,W
8161.390625,8161.5078125,8161.5390625,0.1484375,471.4752312843058,112.58342773738894,4304.136700292257,986.9737429203072,12210.852670062905,3022.5313630346946,W
8161.546875,8161.5625,8161.84375,0.296875,326.6223997914672,82.8638308250618,19839.714580854175,4802.122799950226,1323.6724094053006,327.32240174743083,W
8161.546875,8161.6875,8161.84375,0.296875,412.02490850092045,90.71475127622104,2811.7194598065757,589.3979676471575,2929.1863926700416,639.4262140327946,W
8161.546875,8161.7578125,8161.84375,0.296875,476.00035611350125,119.64280239215084,2335.4179108936155,604.318646366769,5007.591456113195,1285.2038717177916,W
8161.546875,8161.7734375,8161.84375,0.296875,477.1422333449796,117.88057707759799,2179.3946165433395,554.8634004013793,6136.6295892082635,1545.741972070327,W
8161.8515625,8161.890625,8161.9453125,0.09375,202.69832898375813,53.1966402420511,4560.060459591483,1148.0477238896287,3078.0716995106527,773.1252127702819,W
8161.953125,8162.015625,8162.0546875,0.1015625,180.7023037123549,55.93700447426335,2934.240918304827,930.506995334849,3828.112067256998,813.7817689024612,W
8162.0625,8162.125,8162.25,0.1875,461.6696374340314,106.81849888682933,6952.309632017983,1876.3526366034177,3483.7675224955487,762.9365541404221,W
8162.0625,8162.1875,8162.25,0.1875,438.82560887769534,116.24198390349999,3293.402587558303,1013.5641984350741,6602.03058808972,1676.6488685475747,W
8162.2578125,8162.296875,8162.3515625,0.09375,124.65668357480355,34.67098369176819,2421.7991356221114,792.5671540871035,1723.4369451581551,361.90544748325186,W
8162.359375,8165.8515625,8165.890625,3.53125,211.1843000551805,4.22620994493318,62.17162899485442,3.719594185170173,3419.6887447944987,758.1200740965978,W
8165.8984375,8165.953125,8166.2109375,0.3125,448.1652552655698,122.16516783326901,8428.529238239227,1542.4239287401838,2496.801889913055,388.7687247296386,W
8165.8984375,8166.0234375,8166.2109375,0.3125,487.07691859155017,110.68470757196246,3998.7748483375053,582.9667867333781,3640.6314697023463,473.32787510961816,W
8165.8984375,8166.078125,8166.2109375,0.3125,466.6047674311762,63.5406177826558,2525.689488587343,564.0596981590039,2040.947090473686,643.5866260447236,W
8165.8984375,8166.1875,8166.2109375,0.3125,548.115372106025,39.639463238190146,1852.0058279970144,267.94662908014817,15043.152645477769,2627.208287022899,W
8166.21875,8166.25,8166.3828125,0.1640625,393.5655048703957,119.72702814718889,14226.307562100745,2319.3351721519352,3280.45440842735,494.4759317513828,W
8166.21875,8166.3046875,8166.3828125,0.1640625,422.712769976958,118.96515621525741,5512.370925640268,834.5291892109556,5949.857487690491,830.8571232486277,W
8166.453125,8166.8671875,8167.3671875,0.9140625,365.5713929342797,232.88282686231676,712.0339886828482,737.4962204587493,651.5092726463793,446.94730166729914,W
8166.453125,8167.25,8167.3671875,0.9140625,300.48025603552253,274.7746848625305,288.2954497759808,435.77899517981444,2224.3285284218236,2264.452342048967,W
8167.375,8167.515625,8167.9296875,0.5546875,252.34049864913365,330.55226603236645,1942.0685099101092,2280.273059415529,795.3277695249035,556.2444272272814,W
8167.375,8167.7578125,8167.9296875,0.5546875,211.9201740322608,387.3374454772445,607.8251352535152,985.9881232331411,1680.8441015390983,1670.4298914541048,W
8167.9375,8168.1484375,8168.59375,0.65625,355.763213165476,241.28838559041498,1246.9508499747865,1536.7600827490435,1049.4895247407376,537.0504172875206,W
8167.9375,8168.4375,8168.59375,0.65625,379.4786535557815,203.33170893958757,573.488270613724,572.4073066080979,3142.8239640090574,1287.6709587041382,W
8167.9375,8168.546875,8168.59375,0.65625,379.70704955690434,65.87928263845184,775.2887266557109,27.885393601656663,5719.881786373772,1450.931291317713,W
8168.6015625,8168.6328125,8168.7890625,0.1875,379.5355530075499,134.1509254955279,12588.624596202133,3384.8083078638833,2235.500037621887,819.6060588508117,W
8168.6015625,8168.7421875,8168.7890625,0.1875,417.1701528363045,114.33173511306454,3065.09595349384,611.2431590277902,8254.538255086389,2309.210801343487,W
8168.796875,8168.84375,8168.875,0.078125,71.92837000367247,23.650797276190616,1208.1288542810225,370.52412106153207,1925.0208722789994,482.53357581916026,W
8168.8828125,8169.1015625,8169.5390625,0.65625,154.57638583032642,21.703584682203054,666.6136165884169,115.4634150835084,321.8513966112499,49.0155450842437,W
8169.5703125,8169.6640625,8169.8828125,0.3125,394.8867073807757,16.115285777574858,4306.046888358724,177.35640944753803,2825.3504825452624,211.23934119775086,W
8169.5703125,8169.75,8169.8828125,0.3125,524.8995061689471,12.950201430847773,2872.17707278521,69.22197605685393,2271.9306954763047,129.0775994622898,W
8169.5703125,8169.875,8169.8828125,0.3125,437.13887685120886,36.68541043760249,1405.8131313176755,118.72338979928831,27389.461270426676,843.787562005677,W
8169.890625,8169.90625,8170.5,0.609375,432.14617626676187,5.638001145174787,26257.345587370844,1025.4071065664707,808.7638916875529,24.95518133340976,W
8169.890625,8170.0078125,8170.5,0.609375,534.4294860751369,11.333865166671153,4373.796988680913,281.54754006994807,1183.4653876781908,4.377858834557751,W
8169.890625,8170.1015625,8170.5,0.609375,554.2431653833366,39.782585847607045,2731.227576165589,85.91454180660695,1270.4270580972272,122.88432594608767,W
8170.5078125,8170.6484375,8170.7578125,0.25,418.4289317831242,62.096576732453585,3097.4836267822593,339.0480452670897,3026.2390214817997,675.8626825237185,W
8170.765625,8170.8671875,8171.2109375,0.4453125,490.9401407328437,97.27804684536119,5296.362317189093,765.2174766236695,1313.595504970358,274.6244467094823,W
8170.765625,8171.015625,8171.2109375,0.4453125,520.1714726009518,71.88678475372092,2268.5725188305014,209.30455151180468,2461.592507912543,353.3357642994907,W
8171.21875,8171.9765625,8172.25,1.03125,398.34782192293704,123.63544898872154,477.28125655249806,158.87907278091146,1205.9197543502432,611.016976938362,W
8172.2578125,8172.3359375,8172.4296875,0.171875,100.4313982909027,124.43341143499278,1841.8139644122075,888.3042446697898,1597.4782565761623,600.2954467713562,W
8172.4375,8172.6015625,8174.6875,2.25,306.6663551864856,91.0372991689745,1474.1350966214259,926.6420664561401,134.99121174835446,39.252183083938974,W
8175.6796875,8176.0859375,8176.5234375,0.84375,457.45136940299784,139.2988945375982,1067.5332884464672,397.250671615389,882.2699855068813,418.7552371389937,W
8175.6796875,8176.265625,8176.5234375,0.84375,473.0313117106822,126.18641050824297,766.7461815279985,253.04849290990347,1557.6167213263318,659.7544037583691,W
8176.53125,8176.7109375,8177.0078125,0.4765625,184.42707240245983,133.11775455963075,1332.341757347849,460.09465344394124,685.1767735921551,354.31010128392955,W
8177.015625,8177.6953125,8178.0,0.984375,480.41103726898416,60.179974471429375,664.9741798657201,123.25468195692604,1881.5180385714123,382.03995373705413,W
8177.015625,8177.8203125,8178.0,0.984375,448.23901363243635,32.78324978625513,521.6964526489274,70.0619084519443,3011.3558469046498,495.3381493931655,W
8177.015625,8177.875,8178.0,0.984375,524.4450334214226,31.449324061469586,643.3529400004949,9.139935290531833,3452.6483465054375,198.18799897087766,W
8177.015625,8177.984375,8178.0,0.984375,418.1705635269376,90.70291746756429,461.01363914161567,69.27300675756955,20819.620698796458,2206.72598622304,W
8178.0078125,8178.03125,8178.203125,0.1953125,506.23652006370634,21.761206069286313,18792.244633325954,2712.5537666401246,2425.280739691474,97.85636108735643,W
8178.0078125,8178.1796875,8178.203125,0.1953125,449.3566656067872,80.66317257305228,2231.6414786132823,712.5960460182916,15358.518300908929,3230.763885467962,W
8178.2109375,8178.265625,8178.34375,0.1328125,429.95127248161583,107.16691609896674,7914.053416553029,1727.200274408134,5067.777452096955,1102.0582404471736,W
8178.3515625,8178.5390625,8178.8828125,0.53125,178.2690544496446,28.026546275537,858.503129431152,203.3237057311311,494.8371367788177,91.01113881210978,W
8178.890625,8179.296875,8179.515625,0.625,490.43727974516963,108.09755007283078,1209.4145657201166,253.9366873728863,1310.480177381767,679.5683708746825,W
8178.890625,8179.328125,8179.515625,0.625,492.237446240346,101.52291113847875,1127.1424773005112,220.77060642487547,1538.494428253002,757.765025037252,W
8178.890625,8179.4921875,8179.515625,0.625,485.04760923648024,35.6254761246609,807.7880466536859,51.016652961355085,12001.18904719241,3250.4963063751206,W
8179.5234375,8179.546875,8179.7109375,0.1875,382.50538842876915,185.94555768009062,18423.54495273718,4516.637163774456,1252.403543106623,802.0021596722394,W
8179.5234375,8179.703125,8179.7109375,0.1875,352.09868749264785,100.39570640639323,2233.8511799299135,113.02306644739576,22408.416685415556,5891.6643900837635,W
8179.71875,8179.734375,8181.2265625,1.5078125,396.6841094280296,91.503282107626,24214.37736491432,6119.467557637967,167.41478889022432,104.49658766756836,W
8179.71875,8180.2421875,8181.2265625,1.5078125,421.51334161981634,84.02935659172302,840.3062537954575,152.6752632573245,577.4051512388208,19.91531356358029,W
8179.71875,8180.328125,8181.2265625,1.5078125,578.513436323706,17.982255998980264,979.4427067486348,22.759150799611135,807.383140679907,51.693037972695265,W
8179.71875,8180.3515625,8181.2265625,1.5078125,179.86540675165483,74.45863876722593,255.2587751512675,124.16321935437931,37.709202995150655,158.7244097940567,W
8179.71875,8180.6328125,8181.2265625,1.5078125,471.81691837131973,91.78658509590942,496.11755790230575,104.91622134851461,547.2792660891313,263.0935661448136,W
8179.71875,8181.1875,8181.2265625,1.5078125,546.9396562284404,30.28595389049463,359.9014080866022,23.420835656825094,10241.786933697085,2424.606046542548,W
8181.234375,8181.25,8182.203125,0.96875,130.49160099681868,46.99853850383551,1675.968954533325,1413.42850467556,35.55113918595533,27.414236920714078,W
8181.234375,8181.296875,8182.203125,0.96875,442.97213347966294,80.15968879054164,5418.68075835884,2387.8887628789244,307.41611359584067,169.1447413621327,W
8181.234375,8181.484375,8182.203125,0.96875,498.64840821714125,2.07004799342329,1577.3752885396232,284.6136275312577,465.07426460342106,104.62299973887221,W
8181.234375,8181.609375,8182.203125,0.96875,479.04181682012194,66.99011790443241,999.2992819676973,362.86260478352943,529.9630084828456,235.9879595340186,W
8181.234375,8182.140625,8182.203125,0.96875,505.2907016124277,62.561232274092156,442.46743782641903,145.26299714591258,5454.630737263926,2171.0234454877323,W
8182.2109375,8182.2734375,8182.3984375,0.1875,383.19191877994626,195.6922398992231,7750.0154392602,1676.1119694221074,2815.7003985986826,924.3092528029592,W
8182.2109375,8182.3515625,8182.3984375,0.1875,412.83265061235323,172.31655110532645,3655.22984381276,578.7115327643382,8140.870008687835,1966.143313204763,W
8182.40625,8182.5078125,8182.703125,0.296875,480.70494306319375,118.38248324015929,4426.0208996847305,1808.2621411406476,2370.5261205170395,340.98612153240856,W
8182.40625,8182.5546875,8182.703125,0.296875,424.4103177265781,156.27264911802888,2649.0820869902473,1492.492056168196,2739.8653142020626,703.9260142461853,W
8182.7109375,8182.796875,8184.1484375,1.4375,474.7714670914482,105.07215967860867,5191.3188100710495,1656.7143136979537,254.59219780100057,98.9357989234041,W
8182.7109375,8183.453125,8184.1484375,1.4375,512.1270603016847,83.6530025189738,651.4318193862296,162.9705824657287,548.6063612413861,161.50832693613086,W
8182.7109375,8184.1171875,8184.1484375,1.4375,441.0601887134425,128.0579463693967,293.2747959910934,117.5891008172131,9932.351646797093,5014.518477542444,W
8184.15625,8184.1953125,8184.5078125,0.3515625,348.4156444681301,207.4922450340416,10148.783690169366,3680.6357206064254,825.7826648147899,782.9585519939623,W
8184.15625,8184.4453125,8184.5078125,0.3515625,502.4750387140746,72.24465283606686,1904.4194841710198,29.499643288955767,6593.863632009062,1750.8312848022158,W
8184.515625,8184.5859375,8184.703125,0.1875,159.2122244228941,88.18148603599974,2802.511886322658,531.2211914811762,1341.9398113979016,473.67522384305437,W
8184.7109375,8184.9453125,8186.09375,1.3828125,251.65622354638614,37.71771955755764,996.4774345702826,275.14279202664534,204.70420735081274,38.61084616740388,W
8186.4609375,8186.6953125,8188.0390625,1.578125,224.197604178197,80.00404764493982,909.3803950838673,379.130578435003,160.49122761391644,65.10548529384346,W
8186.4609375,8187.21875,8188.0390625,1.578125,201.12362598734725,55.95468803299934,250.80353241327063,85.52164250228564,234.77163753490342,77.33167085916853,W
8188.3359375,8188.6953125,8188.75,0.4140625,116.47155638470679,12.641149360687654,300.56349015931613,58.98886249714369,1456.1100899507635,322.17966424478135,W
8188.7578125,8188.8203125,8188.8671875,0.109375,88.93678094966047,23.19752368022115,1715.325038793807,233.24361871496123,1386.5357662094646,396.67134136894487,W
8188.875,8188.9765625,8190.796875,1.921875,201.41251477490115,34.10825294966027,2064.6230545673834,346.4130851962315,46.0185098611504,27.115239371863264,W
8188.875,8190.21875,8190.796875,1.921875,88.00136882387652,13.842218265548459,71.64809899793507,11.100684116190108,51.274511947069065,50.32159910915984,W
8188.875,8190.7265625,8190.796875,1.921875,342.72203120113494,197.22147013581838,189.56842958621903,107.09646374421624,3201.1034333562184,3021.815841496931,W
8190.8046875,8190.8828125,8190.9296875,0.125,271.55041845747843,255.23472340661488,4378.966423542957,2616.6732776143704,4182.646932671653,3957.159388274978,W
8190.9375,8191.015625,8192.4296875,1.4921875,326.78222065385705,202.7008558302365,4322.129441459179,2842.6033428740707,202.2160393920247,166.96566405511402,W
8190.9375,8191.1796875,8192.4296875,1.4921875,83.07117882974195,0.6750491436605295,387.94455035822773,82.79774751158008,33.78806110293585,27.259262113086958,W
8190.9375,8192.171875,8192.4296875,1.4921875,105.37056465077706,17.551172930526768,94.18102814049084,29.9169241618852,250.31548974430993,197.62502372159975,W
8192.4765625,8192.59375,8192.6875,0.2109375,244.34542892878778,119.01261439673878,1729.6909811466933,1398.6360457316187,2116.8116507035156,1432.6902478262234,W
8192.78125,8193.359375,8193.4375,0.65625,137.61198898831532,40.28716589780271,162.45514072196687,145.60013238692926,936.5542002925189,920.0557514520782,W
8193.4453125,8193.484375,8193.5390625,0.09375,11.740764332431594,119.45124544013952,1557.8248144138638,1838.1404202847793,1069.9916479090036,792.0817687377281,W
8193.546875,8193.640625,8193.7421875,0.1953125,295.95244519522146,200.04707961323666,2479.6211071507423,2775.2137191046536,2291.6001106804692,2205.997862981953,W
8193.8203125,8194.0546875,8195.1875,1.3671875,130.74929309017506,32.78490558811625,339.611684512009,364.65070907885627,45.84683038423203,86.03233125039071,W
8195.1953125,8195.2578125,8195.296875,0.1015625,30.56883132075771,93.40571105923766,1472.4590959706568,331.8938026153353,1408.5350318942692,945.4157137371906,W
8195.3046875,8195.390625,8195.4765625,0.171875,316.88255488476204,47.90792048219791,3140.313765603772,1095.3292743734703,2149.1847965122915,1628.9504215556174,W
8195.484375,8195.5390625,8195.6015625,0.1171875,11.737164774453397,133.02321382799994,1726.7363342478202,552.1550128641975,800.2374138760761,915.1151081970158,W
8195.609375,8196.0859375,8196.4140625,0.8046875,136.73714716815468,371.2367526451315,134.29070118592225,913.0289445062975,62.83044172429081,1414.9037181700862,W
8196.421875,8196.671875,8196.921875,0.5,97.40952532552443,415.07818694050843,70.97220289862963,1211.6289791519118,43.72762247952096,1193.1783704509342,W
8196.9296875,8197.203125,8204.6875,7.7578125,124.53308621132146,211.6647137955443,56.69479392261679,1146.5032813647708,9.419448781064752,33.00782936706843,W
8204.6953125,8205.015625,8207.09375,2.3984375,146.24316132949718,36.658368122858334,287.66767848769155,228.9244401695482,49.34145103530121,36.08928040328465,W
8207.171875,8207.3515625,8210.640625,3.46875,172.5925711049788,60.26029774969787,723.7326211181884,582.4872699178826,38.37746483308126,30.97324535601321,W
8207.171875,8209.046875,8210.640625,3.46875,132.67009679968325,13.762809979714099,48.06572322766876,31.0230365564724,54.15115678259501,34.74538166825313,W
8207.171875,8210.2890625,8210.640625,3.46875,197.1384485909906,83.63338082314432,49.59328973415501,41.07509233461766,428.8618891763716,356.2553539618379,W
8210.6484375,8211.296875,8211.5703125,0.921875,23.1344760728949,99.2250534837177,102.8135879086405,83.911853636832,265.9770609085352,154.85285067328238,W
8211.578125,8212.1015625,8212.6171875,1.0390625,325.4050181970378,209.20947063352867,516.0455348221026,497.69624625662436,570.2134565934815,457.8225600439294,W
8213.046875,8213.1640625,8213.3515625,0.3046875,18.27549059228761,100.45142525695044,317.8171786532709,401.7905911615582,106.38975679374944,137.79311919654333,W
8213.046875,8213.203125,8213.3515625,0.3046875,18.22365769156642,98.54778938756623,238.69461455456877,289.1596738071097,134.73625128117365,161.2299720755716,W
8214.0,8215.203125,8216.640625,2.640625,205.3319334849242,118.93042723213084,122.31550675920273,146.8961550943735,96.55467311107088,119.86115439454973,W
8217.2890625,8217.4765625,8219.21875,1.9296875,94.3494166264964,6.744204697239455,229.81189974142524,261.08023544809504,32.89559290722704,22.46461890821749,W
8217.2890625,8218.171875,8219.21875,1.9296875,130.763026511845,42.258620292498314,90.05688193910464,95.67938802608332,89.52730808683769,71.30936725914653,W
8219.2265625,8219.6015625,8220.0625,0.8359375,161.01207974235183,52.51653063172892,333.3892638904775,225.78215158516932,212.45156332757298,227.93397336855745,W
8221.015625,8223.65625,8226.2890625,5.2734375,105.45581151173481,15.902080443821507,14.990636681573804,18.21472296836241,14.510072375810633,17.908105788196764,W
8226.296875,8226.671875,8237.3828125,11.0859375,95.02338461561496,5.220029420744615,74.04507856336814,97.91862106183756,4.3925773093009095,3.6438479674618076,W
8226.296875,8228.34375,8237.3828125,11.0859375,90.70754090400546,0.28399641047228924,11.457006778456696,15.527792311653991,4.727567412243328,3.7717401366251346,W
8226.296875,8229.03125,8237.3828125,11.0859375,87.88511976550151,4.652523378712459,7.544188200649,9.818305864679136,4.778789139604328,3.4911401356965697,W
8226.296875,8232.8515625,8237.3828125,11.0859375,102.47142659569592,10.19794189349991,5.372482889740207,6.361461987462314,12.026849766382604,9.711876482591062,W
8226.296875,8233.40625,8237.3828125,11.0859375,94.53202830354006,4.813763446530049,3.8365606187869052,5.107793149745867,11.707917255610923,9.712600233184034,W
8226.296875,8234.796875,8237.3828125,11.0859375,86.25633385022246,2.708299917136021,2.235276905396536,3.3871945365068767,14.803749223810597,12.0268562179499,W
8226.296875,8235.390625,8237.3828125,11.0859375,90.18899755919529,2.116217483471835,2.5217888555154233,3.6965686280045422,21.189889991489526,18.033049550663616,W
8241.9609375,8242.296875,8242.6015625,0.640625,88.35653905210984,6.094815755675285,104.04510346403691,101.57503178994561,95.50183962645184,115.04298667458065,W
8242.6328125,8245.046875,8245.875,3.2421875,305.826206802823,212.7214314436009,101.94564338314916,100.15383905302933,305.5944967877833,308.6099280948362,W
8246.1484375,8246.7890625,8247.8671875,1.71875,61.60819016535922,175.75778578728497,162.68914099498713,199.47013404968743,96.77415756862575,121.86849307434618,W
8248.7734375,8248.9140625,8249.1328125,0.359375,15.218282276620007,110.06731103779985,390.9297491181758,528.8745387501853,244.30406438234246,325.2331195737887,W
8249.2265625,8249.671875,8250.3671875,1.140625,81.387394366113,29.250433008385617,97.98199984168437,140.099228923629,46.67368106782419,102.10567220812206,W
8250.671875,8251.09375,8253.78125,3.109375,70.96443527853299,16.292228505093192,58.22129215978489,147.33982743976708,5.296340642194824,12.444518590909507,W
8259.640625,8261.1484375,8262.0078125,2.3671875,99.2236781604646,60.793923977731176,40.33391627123141,64.41786428374301,43.54204713758302,98.88607370362132,W
8262.515625,8262.71875,8263.140625,0.625,6.697436300093142,103.29010841108277,146.0475167133975,263.2773433567339,89.70270101569741,168.37988298794613,W
8265.6953125,8266.0390625,8266.28125,0.5859375,123.76983008271388,65.31018512343277,303.1325956373121,233.16852085810353,366.2033910347327,384.81635866581115,W
8266.671875,8267.1640625,8267.5,0.828125,17.41434533915424,101.16819063657066,117.70636124240023,130.81068877195017,122.94891193159759,163.28171564650634,W
8267.6484375,8268.3515625,8270.1875,2.5390625,113.68017845588483,62.478780236648895,123.61376130646401,129.19705774543635,49.670661541076456,38.799804654291506,W
8267.6484375,8269.9609375,8270.1875,2.5390625,98.13182897855329,54.36668108137223,30.861654677308536,35.77495440950628,333.8764389329148,278.60708282355483,W
8270.1953125,8270.453125,8270.953125,0.7578125,107.82628473340739,177.49922576804033,486.5029592085178,635.2258245150509,262.5696537107543,246.32615736266388,W
8277.65625,8277.8515625,8278.734375,1.078125,142.17659396600604,96.37361718576415,555.4721484516159,640.6643404690517,129.36182100084886,127.32222076325962,W
8278.8515625,8279.6640625,8279.8125,0.9609375,9.141189576054748,102.77159227152457,40.188508107333924,97.21723148654497,184.30647094664255,541.5170995787216,W
8279.8203125,8279.953125,8280.1015625,0.28125,15.878116770891463,115.30901741228642,259.8342086815906,712.6977481198982,174.32704444382296,501.50459341430513,W
8282.4921875,8282.6484375,8283.4296875,0.9375,157.19905146437625,181.79246212192598,860.757671655608,1320.4624681391028,168.53138974642744,262.85452690407516,W
8283.6875,8283.9453125,8284.3515625,0.6640625,98.04027783853992,205.06839532127694,487.5147757129592,690.0497904770879,289.1101953573823,448.3458498293497,W
8287.640625,8287.8203125,8288.4609375,0.8203125,173.2911231949606,212.8921960980094,869.40528047007,1278.9337001593908,232.56808265204785,368.4799303571699,W
8288.7109375,8289.078125,8290.4453125,1.734375,63.73913630992328,147.89329094392937,231.19253134418955,344.39574931725576,62.19809453580788,88.99911479932197,W
8292.8046875,8292.9765625,8293.7734375,0.96875,177.2482072374075,209.4043687521574,951.8419101155667,1279.1345736214575,199.82533775624117,283.1014095606909,W
8293.9765625,8294.265625,8294.9453125,0.96875,117.41904419922783,232.62975215742543,477.7605424995248,725.7430080443382,181.07776337121058,307.8434673913696,W
8297.9453125,8298.1953125,8298.8515625,0.90625,126.84946984371453,155.25588176503337,461.3722495369406,669.8565131904915,173.2745360559099,252.55488094474177,W
8299.1484375,8299.40625,8300.0703125,0.921875,107.90061649238875,212.84902590492462,475.29790694006897,767.1972672476654,163.6042471480545,284.1418086951797,W
8303.1171875,8303.2890625,8303.8828125,0.765625,155.10668614755213,201.8384952269851,884.6565627712372,1228.6861906494037,240.01795843821162,358.17305438381214,W
8304.2421875,8304.546875,8305.8203125,1.578125,112.66114330337828,208.507643808345,414.0671315401414,646.1348078457967,93.00864424535324,142.34394615906103,W
8308.28125,8308.4453125,8309.125,0.84375,147.4052737541772,192.49671235176362,902.6477269201159,1172.917557793313,207.32806049002397,288.5846393908453,W
8309.40625,8309.7109375,8310.96875,1.5625,123.01521324218058,215.965985018658,424.66128358191503,686.3569613453794,104.14907986091134,161.2883991754958,W
8313.4296875,8313.59375,8314.28125,0.8515625,150.25726705423153,209.79782348632443,928.0105861045704,1287.8690068655046,203.65816084950683,316.2135063405071,W
8314.546875,8314.8515625,8316.1640625,1.6171875,107.45057544689124,189.46612464526098,376.8174465245624,592.827990676874,78.89384562596939,128.53054340317863,W
8318.5859375,8318.7265625,8319.4765625,0.890625,141.38674314244898,200.61221199269195,993.2683389930169,1425.1209870096636,182.1903536124039,271.6113365958342,W
8319.734375,8320.0234375,8322.3515625,2.6171875,126.13668212059451,206.28226955902252,457.57580221922706,686.7502429820233,55.267888407296404,86.98569747290593,W
8319.734375,8321.328125,8322.3515625,2.6171875,36.23605885144948,71.91093275202064,26.583455410102125,40.24621509332658,37.88206844979974,66.5817308063338,W
8323.7578125,8323.9140625,8324.453125,0.6953125,134.5657529082769,193.12483936634953,883.3471935504289,1168.1986914959866,251.7324367657078,354.926516483293,W
8324.9296875,8325.203125,8325.8984375,0.96875,135.00860953436515,222.50749595563565,509.7594618354036,808.305894963123,166.49070300451865,293.21130336034776,W
8328.9140625,8329.078125,8329.734375,0.8203125,137.39703298956195,212.20828327209628,874.9003943276733,1214.5921107394033,206.74799278316672,323.96042763909986,W
8329.9921875,8330.3359375,8331.7890625,1.796875,133.0542104458884,212.9138013870829,386.76991313783293,619.7438760099413,82.20919639929629,129.919696699657,W
8333.859375,8334.015625,8334.0703125,0.2109375,38.04289073504863,43.505162002856686,195.09243370670677,297.02748986714084,327.86297605259784,791.1667862754349,W
8334.078125,8334.21875,8334.8984375,0.8203125,109.62886331836427,179.2961443563947,883.7561856601901,1201.5919589324665,172.93367508469134,250.9227762567371,W
8335.203125,8335.515625,8337.703125,2.5,148.20648739682923,200.6258352925557,473.16317365072484,648.9348986406866,62.54043901596602,84.9597743124175,W
8339.2109375,8339.4453125,8339.75,0.5390625,101.09068617557696,159.7631165537804,485.17553150109796,658.5344581448034,323.9388236655437,508.6799633273149,W
8340.3828125,8340.65625,8341.3515625,0.96875,147.4948245364167,219.7734410731427,482.61865364511965,759.4992387167904,192.8838322272348,331.55189128599255,W
8341.609375,8342.0859375,8342.390625,0.78125,69.0507282737579,80.18721209856058,147.71438812780178,173.53143758678738,197.64652041448662,265.3957299147768,W
8342.3984375,8342.796875,8343.859375,1.4609375,106.13774940301812,138.86525094119028,281.69448545588,339.50739681791134,84.84064554453538,141.53966146498752,W
8344.375,8344.5390625,8345.1640625,0.7890625,157.1527878626124,235.64257426501354,1020.0196099669934,1373.72333218861,255.54565722464167,369.42763796880996,W
8345.3359375,8345.765625,8347.1953125,1.859375,86.18033255633159,166.51905899037683,195.29841915205677,395.46730274037435,47.57855646183852,117.33461122432763,W
8349.546875,8349.671875,8349.953125,0.40625,79.34942620832408,146.52772478209792,683.7109139423784,1102.4224639145573,241.92394327489922,469.99756084408,W
8350.03125,8350.2890625,8350.4453125,0.4140625,77.59952421475491,80.28196426634982,295.0243897909337,268.3812745127791,548.2892353573727,416.4293719545284,W
8350.6640625,8351.0390625,8351.4453125,0.78125,100.56926108490727,129.2520624922598,232.83791172000124,311.64212381974147,187.81845644271505,296.3177058237509,W
8351.5703125,8352.1796875,8353.2265625,1.65625,59.30608983660497,82.44962843404649,41.94512225627741,129.37216856008914,45.40903597241644,74.95799287302154,W
8354.0703125,8354.2578125,8354.4140625,0.34375,70.60789768742319,51.625339839793014,298.7268949228017,317.6260590860641,389.1727511093385,351.3870192603207,W
8354.6953125,8354.8515625,8355.421875,0.7265625,135.4557544268559,223.44614144981335,908.7846699386266,1359.6170940408279,252.16964183901985,374.0992142927207,W
8355.7734375,8356.15625,8358.109375,2.3359375,159.6931548696781,221.92002669773728,401.9698114945093,598.63717027586,82.71419169991957,112.42329737938962,W
8358.1171875,8359.0703125,8359.5078125,1.390625,22.113626965868274,58.808790924620645,21.197946562869525,63.881946669029915,41.827568582308466,127.34345435760272,W
8359.8046875,8360.0390625,8360.3515625,0.546875,92.44126021179045,166.7512041831197,445.4870943571125,640.759720613631,321.6398686214719,474.553307550522,W
8360.8984375,8361.265625,8362.0703125,1.171875,135.06872718285936,191.67788537186615,349.8613605224823,537.2921049471623,152.37131907692432,237.04908679745722,W
8363.09375,8363.6015625,8364.03125,0.9375,33.547766343058726,54.092608552117234,40.381409960824634,131.72281376459762,43.418601922303985,154.83798636611655,W
8364.9453125,8365.1484375,8365.8671875,0.921875,137.9182571640182,201.17858103120838,679.5232409775156,938.3385231879207,186.94839586740545,278.4083105620189,W
8366.125,8367.4453125,8367.8046875,1.6796875,120.36478766965006,125.97626677363078,81.4034553629816,93.25743229397496,331.116219412628,345.37038579377435,W
8370.171875,8370.328125,8371.1015625,0.9296875,136.4845813454341,210.29760664197536,920.0976477986162,1257.9111474500482,177.829870493943,265.0846189660531,W
8371.1875,8371.546875,8373.828125,2.640625,126.44813965968181,172.88519582420975,316.76891895655456,454.25462223053137,52.23782589890658,78.47625701585947,W
8371.1875,8372.59375,8373.828125,2.640625,45.82538916416334,36.4279468500779,23.62032338097303,19.051026410642027,31.22615885477441,34.48442518950689,W
8375.109375,8375.265625,8375.328125,0.21875,44.788392418941044,50.869467531451356,224.3708414969186,300.60360674388545,343.94578776067397,765.697428921955,W
8375.3359375,8375.4765625,8375.8984375,0.5625,118.68428484751944,187.3211711036224,960.226944441297,1271.6665279320305,268.6118447394744,374.82761200320056,W
8376.4453125,8376.734375,8377.3984375,0.953125,116.37226651798147,158.7765092795766,375.479432781142,547.897775248273,141.12116623862966,250.50810983457092,W
8377.40625,8378.0234375,8378.2890625,0.8828125,57.60745528732227,68.42808203513682,57.0479266225837,123.49439531577873,156.14751856349605,230.1693093762467,W
8380.4609375,8380.640625,8381.15625,0.6953125,171.33168899036374,262.91888042623714,1051.3177293215208,1386.1131522474336,327.9165625337622,488.1961778848523,W
8381.1640625,8381.296875,8381.4296875,0.265625,90.42322362439599,85.93143978759943,665.4483228507926,686.9044276091647,603.046145977307,645.8495851109117,W
8381.6328125,8381.9453125,8384.15625,2.5234375,125.17049697672749,174.2833667282855,393.53092418760036,567.8565507968099,52.49442130052786,82.51031094474394,W
8381.6328125,8383.2265625,8384.15625,2.5234375,34.79325371890133,76.40215621863817,20.45563642403071,49.92876022861537,27.62717723569442,90.93800884140903,W
8381.6328125,8383.5078125,8384.15625,2.5234375,33.084231592127736,59.74223759479597,16.47581249281352,33.55415626160722,36.974448901453194,104.68859600332375,W
8385.5078125,8385.6015625,8385.65625,0.1484375,48.08298211174581,32.49412859385855,401.6905034324553,512.1745283482842,467.2316028827105,826.3784984651126,W
8385.6640625,8385.7890625,8386.1640625,0.5,97.35352942844413,164.34604580173828,907.5927287791321,1134.6530592869933,269.4667182404581,343.4283390802573,W
8386.1953125,8386.390625,8386.5625,0.3671875,27.36910219258528,78.63808342216116,161.5526723039903,218.39118121207125,216.17046286255635,372.4149167287353,W
8386.78125,8387.078125,8387.4609375,0.6796875,140.94086108045713,190.92814916232714,460.45114278937626,654.2961782941709,350.3250832836479,421.31766040212113,W
8390.609375,8390.7265625,8390.8046875,0.1953125,35.85741818228328,52.34779121267058,176.4098989440088,252.1882575926685,314.35440451430213,630.5653494342944,W
8390.8125,8390.9609375,8391.6640625,0.8515625,118.94050756495685,190.58031957636524,834.7647092443685,1232.1894676696345,182.99159800932838,251.9099228376534,W
8390.8125,8391.5390625,8391.6640625,0.8515625,40.07627013191736,61.58934494301791,61.999000905526344,74.20166809306019,398.41383933815615,385.0655188950216,W
8391.96875,8392.1640625,8392.625,0.65625,113.83724785026939,143.38024819185105,468.3091857968822,684.1537474158677,217.72629778593193,332.77452231828624,W
8392.8203125,8392.921875,8393.0390625,0.21875,36.666108144296686,124.01097520868952,292.2593083150199,1253.153015832975,143.27942196790593,921.201737804456,W
8394.3203125,8394.640625,8394.9453125,0.625,47.853200639662006,76.08459758148388,116.8766139110387,268.1793092419089,52.36302624688935,273.6932813944107,W
8394.953125,8395.2890625,8395.6015625,0.6484375,98.65136709681832,87.4945611563955,200.9034464195577,282.1386622958102,269.35702784831227,309.98450480320724,W
8395.96875,8396.1015625,8396.6171875,0.6484375,98.64189151204738,164.22390516859164,824.3361546878685,1120.7587013093946,208.13306956001796,294.6689791873813,W
8397.078125,8397.390625,8398.0,0.921875,118.37994138838741,177.7523007776,373.6202320512412,574.548369903703,172.78456104082096,309.7024310257162,W
8401.1015625,8401.265625,8402.03125,0.9296875,134.43809407788746,221.89046141259985,921.3499932351276,1280.4492795336332,184.39638349732084,280.17050406751787,W
8402.234375,8402.5390625,8403.1484375,0.9140625,135.26640331178956,191.4663930314036,428.7553341502599,634.7730714364465,207.91787939413697,325.43314003895745,W
8406.265625,8406.4140625,8407.1953125,0.9296875,130.9603271850883,217.17969014846244,975.9429453897882,1377.5238850184514,176.45362791611515,264.685128224745,W
8407.421875,8407.703125,8408.8984375,1.4765625,141.80036509949784,195.31454916894452,485.95152678048976,702.1715620352777,114.06400049283728,167.3561796651557,W
8411.40625,8411.578125,8412.3046875,0.8984375,139.07060139022917,234.17609803056106,888.6538489124869,1266.560021000071,201.7747555732564,308.2511716321393,W
8412.5390625,8412.8359375,8414.15625,1.6171875,120.80159052269106,169.26128289874623,397.275198136093,591.9048689860433,87.42869343243083,129.5167123498863,W
8416.5625,8416.7265625,8417.3203125,0.7578125,134.1820866038194,228.77463969663086,874.6997993698453,1306.2735121179608,235.31824335564062,348.5967367753885,W
8417.734375,8418.015625,8419.1953125,1.4609375,125.67994570804508,166.92344255115322,426.05881301572396,599.2932010274853,99.35158033199541,143.26254267043822,W
8417.734375,8418.6015625,8419.1953125,1.4609375,53.224822573054624,50.480082512063206,54.62938294853409,60.08833470257615,75.36622195858591,88.52491918727169,W
8421.734375,8421.890625,8422.5390625,0.8046875,133.54805913751926,218.0315701244355,935.2021339609003,1351.5823293646185,202.6372322502623,307.8007554006724,W
8422.859375,8423.1640625,8423.671875,0.8125,137.8257131367053,189.77040029329982,445.4099056393317,623.2180039794287,219.8985837722107,350.063960274948,W
8426.8828125,8427.046875,8427.8515625,0.96875,153.29709664289038,229.8592487676839,986.748199755608,1358.38068327373,196.52148801280603,272.06537750612057,W
8428.03125,8428.328125,8428.9609375,0.9296875,124.95175111925573,193.08927504233284,417.7619192552125,651.709595764061,166.55675330846032,304.0718036254329,W
8432.046875,8432.21875,8433.0625,1.015625,115.35980643512767,196.573254841345,746.9515651519064,1077.6434650339713,137.4901693896047,221.60484881843317,W
8433.2265625,8433.46875,8433.9375,0.7109375,125.23887058870736,185.5937277285174,519.0197685389913,745.6624307312289,230.22304836628123,371.7399528991008,W
8437.1796875,8437.3515625,8438.0390625,0.859375,144.59185628930905,232.85663092935044,900.1654442242487,1315.8351991716445,198.51786714299735,315.36497042308116,W
8438.34375,8438.6015625,8439.0234375,0.6796875,150.26775370312234,221.27863882619585,593.2299411562278,852.2215465223705,307.29367905659603,478.2667160527498,W
8442.3515625,8442.5234375,8443.046875,0.6953125,154.6094416190376,231.41798768947234,951.644368808924,1323.3919731087806,311.6784336413105,424.6117232873244,W
8443.4921875,8443.7734375,8444.8203125,1.328125,122.68788613481206,186.32749830759408,449.61216525307,643.8529010257965,114.54447343154713,179.67784023839346,W
8443.4921875,8444.2265625,8444.8203125,1.328125,38.85883770615114,45.05441285715667,58.04169947065874,54.2101010560924,60.77422685471995,78.86678492485179,W
8447.4296875,8447.7109375,8448.4921875,1.0625,137.05491121825938,204.0727617226997,500.3255908363457,704.9451559417803,173.47741666118512,260.94046785321274,W
8448.703125,8448.953125,8450.03125,1.328125,118.67136718615589,165.6483208808716,486.00976236495336,634.2268615372371,109.89744063401355,152.34483273229398,W
8448.703125,8449.2421875,8450.03125,1.328125,31.82539200710239,48.053675004591774,64.29025467767623,75.98760720330101,40.094673114604184,59.12348757319556,W
8448.703125,8449.546875,8450.03125,1.328125,42.16053525144067,45.42963245191783,53.32338803736074,45.43766157671764,86.65258580403744,90.8966902927498,W
8452.65625,8452.8359375,8453.6015625,0.9453125,161.70795630994508,237.88681533661028,920.7718841034298,1292.7664255203222,205.03551951509354,301.40628752453614,W
8453.8125,8454.1484375,8454.8125,1.0,122.64141328448247,194.01644414206436,386.24505164481127,560.9242439455894,172.95789777530615,301.98903363884625,W
8457.828125,8457.984375,8458.8203125,0.9921875,141.66853771622934,217.00677319021585,945.9431566097746,1397.9177128344145,166.27966433587616,251.6587242995733,W
8458.9921875,8459.2890625,8459.9453125,0.953125,118.94101087690053,187.67670834365256,415.2505846353263,623.5348909285766,164.17289607041775,283.05140545405334,W
8462.9765625,8463.1640625,8463.859375,0.8828125,192.10312364625992,268.31173312800325,1037.114202754871,1408.4511061366522,264.86917637437983,381.1493052534521,W
8464.1015625,8464.4140625,8465.171875,1.0703125,156.25925593280684,214.95833445317942,512.9806196305157,686.4712160176605,177.24345015643908,265.8278439463261,W
8468.140625,8468.296875,8469.09375,0.953125,133.8965619005328,212.45312213952258,902.9075791012295,1335.8640120665066,162.72012868064573,265.5163730756776,W
8469.1015625,8469.5859375,8470.203125,1.1015625,75.45516685467335,118.97872487814362,160.55015237015857,240.08639511993505,102.08117102112526,170.75912188613555,W
8473.2734375,8473.4609375,8474.1875,0.9140625,158.7763786874566,232.30644338462085,878.5557157516278,1241.313486453528,208.95539545773434,310.84011440251106,W
8474.4453125,8474.7265625,8475.84375,1.3984375,121.97732513035146,183.7885843454373,460.7162218522242,629.4067016851976,109.87115244518347,163.24964461539645,W
8478.4453125,8478.6328125,8479.0390625,0.59375,156.33093981513971,224.05922995276103,841.1622156857661,1202.0186433738993,343.28340556392766,506.64705017252174,W
8479.59375,8479.890625,8480.9140625,1.3203125,101.23585658825228,162.38815031938543,356.031404145123,532.4223759206757,99.10428752410222,157.90928212017536,W
8483.578125,8483.765625,8484.53125,0.953125,156.5859559198519,231.90555432224096,850.7787809448077,1243.7119230735818,203.38867243320897,300.7086412764686,W
8484.765625,8485.0390625,8486.1484375,1.3828125,113.51114107954449,169.06855013359495,438.7568175702195,597.3178102132922,102.25828309605794,151.9643975858556,W
8484.765625,8485.609375,8486.1484375,1.3828125,37.118260372671536,52.50505521359256,51.64999893035134,55.425888960230786,68.73025317623897,96.50459575987234,W
8488.7734375,8488.921875,8489.6171875,0.84375,151.2236352186215,190.8147658264296,1012.2323717523367,1258.7034002017904,216.0473436286396,274.4249842741145,W
8490.0,8490.203125,8490.359375,0.359375,63.446795260402524,102.60740291280433,341.3575586882867,466.24826246942087,378.52719049113364,611.622475740624,W
8493.3359375,8493.46875,8493.5703125,0.234375,84.21375392591172,91.99882260213053,661.0703900947119,694.2397913714001,776.7361516175034,765.6531309500649,W
8493.765625,8493.890625,8493.953125,0.1875,33.53713694635303,55.62843576376093,253.08245562678974,481.6239725083309,429.10794064566886,641.3674034964591,W
8493.9609375,8494.1015625,8494.7890625,0.828125,96.17586953670387,150.90399193348983,683.769626220545,1108.9692976479366,133.68206253986293,203.97350900159637,W
8495.15625,8495.328125,8495.9453125,0.7890625,132.9169986551212,225.97958368324302,817.1984929952752,1242.4379991163935,206.64687947828176,372.48475095715537,W
8498.328125,8498.6015625,8499.0,0.671875,33.5009244541725,64.33927815258842,145.30445981343092,216.25268769818518,59.93413596047835,157.01252765993303,W
8499.046875,8499.2265625,8500.03125,0.984375,136.2451411252294,229.66967243580265,719.4366249364697,1314.4518810080624,147.40460377020773,261.6558923601785,W
8500.265625,8500.5234375,8500.9453125,0.6796875,175.6164743368716,230.4163388784738,723.9742206051299,860.8213956459448,409.62702010582194,523.5160452325226,W
8504.1953125,8504.453125,8505.1328125,0.9375,134.3427368340718,185.5256909387182,548.8854850602363,696.431567388736,196.85102775486362,266.0245618584853,W
8505.3671875,8505.6953125,8506.7421875,1.375,134.17019441668467,203.88352858773854,417.95609271594446,601.7003831072632,129.08876376746863,191.56996667253554,W
8509.375,8509.546875,8510.3203125,0.9453125,165.08367744029061,239.13854849912636,972.7682279337412,1355.4253658266261,202.3602237903433,309.21951178711004,W
8510.4921875,8510.8359375,8511.921875,1.4296875,141.88709116272386,202.94092063246734,423.45714197668127,581.8603611927502,131.81826859029374,183.98040444970601,W
8514.546875,8514.7265625,8515.5,0.953125,217.8448223890135,284.41178114935116,1219.1380060961885,1536.5769984336805,278.72397089068767,360.73307682966225,W
8515.765625,8515.9453125,8516.5625,0.796875,174.58074356156365,232.09315263182216,999.4492494859895,1289.986242710536,289.7694233567973,365.5832815750645,W
8516.9140625,8517.3203125,8517.9140625,1.0,74.4544575871865,89.47217158281174,145.42621155661558,245.73923717628867,127.33454883114682,146.866746939362,W
8517.921875,8518.8203125,8519.2734375,1.3515625,38.26114037394386,62.36409687432979,40.61032745032529,70.96732684996577,63.07113547774747,93.2898254939291,W
8519.703125,8519.8828125,8520.5703125,0.8671875,150.6912436951201,221.75547684226845,825.747142270357,1251.2262999002517,218.20385364300094,319.164918626639,W
8520.8125,8521.140625,8521.5,0.6875,92.34793585566499,144.54033352961108,300.2221653301193,427.1196168595715,266.7539136741913,388.6452801083374,W
8524.8359375,8525.0234375,8525.765625,0.9296875,164.6014472761623,240.91949085803753,882.3803221065068,1284.749787336234,205.33710987233505,300.24572562317303,W
8526.03125,8526.296875,8526.8671875,0.8359375,160.54795056361283,242.33319292970262,637.6158887336028,873.0865194253372,310.78436443706806,392.0235496394954,W
8530.015625,8530.1953125,8530.546875,0.53125,156.56736529948566,233.06477852536213,881.370028891677,1309.6806193606492,431.5215839463881,586.1269993251957,W
8531.203125,8531.4609375,8531.8828125,0.6796875,113.61620527022069,179.53068115293812,463.19279810036414,679.821375122202,274.776197139464,411.67590747286084,W
8534.984375,8535.140625,8535.203125,0.21875,45.90468968410292,69.95879317376951,220.2066573331343,325.62085165715257,646.3248089835539,989.7619031207778,W
8535.2109375,8535.34375,8535.765625,0.5546875,132.6057233751695,184.55657130222758,970.978069590621,1350.1791021115985,299.027320212846,423.24602936545176,W
8536.359375,8536.5703125,8536.8359375,0.4765625,86.2821209858054,165.6758425813718,414.2789767819785,770.1932262019903,333.3761301125388,586.9584573751704,W
8540.34375,8540.5078125,8541.2734375,0.9296875,147.7432425182865,206.69589622840462,923.9550341192033,1214.1542591306409,189.57908034433447,264.27649523670317,W
8541.4921875,8541.765625,8543.0703125,1.578125,128.43727918787195,194.74822759848277,488.59904731232643,703.7759041957092,93.51152174709776,135.58776781649462,W
8545.4765625,8545.6484375,8546.375,0.8984375,164.84414148806607,227.31641434074172,1009.4578034687246,1311.4845014844457,224.7895738141912,311.78204437567774,W
8546.703125,8546.890625,8547.96875,1.265625,158.9515057849747,215.32745216515545,863.623989475811,1119.964508125783,153.73363797052875,191.86781668272494,W
8548.7109375,8549.7890625,8550.2734375,1.5625,40.52350893957997,52.23085383917866,38.65922605780603,47.43999770945656,72.59623784740499,80.22448029181804,W
8550.640625,8550.8203125,8551.3203125,0.6796875,159.46669712088192,225.15855598699244,888.4840133015274,1253.1418565751526,321.48335273824716,442.04240879252825,W
8551.7578125,8552.0859375,8553.1484375,1.390625,147.57740679189777,195.7346978857826,459.1492363777346,586.2878091070545,139.06923879979172,181.3135402685267,W
8555.796875,8555.96875,8556.8125,1.015625,174.7202636402926,241.85872470917292,999.0579061723413,1385.8712241629967,203.38334726043436,284.895668746832,W
8556.96875,8557.2265625,8557.9140625,0.9453125,141.39131170905915,209.27076998669608,582.7564948169287,793.1177894974935,190.06605100750596,303.249636410162,W
8560.9453125,8561.1328125,8561.84375,0.8984375,142.81498300969008,213.4016376642988,777.8309134409534,1143.0085466090065,199.26742441048577,296.113155142309,W
8562.0859375,8562.3515625,8563.0390625,0.953125,145.03621281815617,247.9386067311742,556.9985241140937,916.6917899629684,191.53483433532222,362.8425058666278,W
8566.1171875,8566.2890625,8566.828125,0.7109375,106.63149689995649,177.81449396408178,660.1488041647207,1022.3402953341847,175.8388183240233,286.05134467252134,W
8567.2734375,8567.546875,8568.640625,1.3671875,145.76278177593804,212.2889453556627,544.0437927296404,755.3993743502148,136.72304337901818,189.32430599266178,W
8571.265625,8571.421875,8572.1640625,0.8984375,144.81904014276694,215.36500691930905,933.3277080066953,1384.725124257912,186.26769308418432,279.3458034488248,W
8572.4375,8572.703125,8573.828125,1.390625,135.29669301347192,208.99502882727796,535.3949391547668,768.1558770160615,121.99855359203401,183.57979684808015,W
8576.421875,8576.59375,8577.28125,0.859375,155.2169624073974,223.74033103424475,938.0865337855514,1311.3175795484383,227.56404788963118,310.00783933994484,W
8577.5546875,8577.8515625,8578.96875,1.4140625,105.73414476059635,163.92308447060626,361.6307457658236,535.6639929729503,93.97985212015286,146.4844762283568,W
8577.5546875,8578.2578125,8578.96875,1.4140625,45.2624187009964,63.12300781744911,66.6843044830278,82.80913245964442,62.62349359948422,88.40516801154847,W
8581.5703125,8581.7578125,8582.3671875,0.796875,187.2119140846758,213.08347869669083,1045.155193532417,1093.09507831399,300.22748568161967,353.55088991750705,W
8582.8125,8582.9765625,8584.109375,1.296875,154.21319375657183,224.07033677560742,973.7533899755122,1349.5396720504393,135.35769667401772,196.9028429009756,W
8586.7421875,8586.9140625,8587.375,0.6328125,105.0644111225068,186.08157500899017,590.1013045053679,1110.5772882262127,207.88077061219784,418.5171442511925,W
8587.9765625,8588.1484375,8588.5234375,0.546875,140.1510209337986,207.35247971089942,888.5025743689068,1169.0870098340977,361.3429016018452,557.4822217059155,W
8588.90625,8589.5390625,8589.8984375,0.9921875,55.66090432721166,52.311389913974445,80.0789097306717,91.08291826514433,131.29159509970722,103.3495658675771,W
8591.8984375,8592.0703125,8592.796875,0.8984375,192.71601270883914,244.38532906794046,1112.0500029672999,1411.6121943065425,267.77697369214246,331.7795469001017,W
8593.109375,8593.2890625,8594.0390625,0.9296875,154.56599517048087,251.5412895840202,882.9751090649482,1376.908016001742,181.7019054489812,331.40107345278915,W
8597.0390625,8597.1953125,8597.9453125,0.90625,92.50634468898994,148.15347177254816,597.5347560395734,956.4232423654672,114.33052126537744,184.2838005401943,W
8598.21875,8598.4765625,8599.015625,0.796875,117.91668132271832,170.45848201421694,494.76825491627227,616.2238227226186,202.24554128864412,324.26502214189776,W
8599.1953125,8599.4453125,8599.703125,0.5078125,43.83519326582853,84.21210236038121,103.4329923516079,411.83058612391204,139.69424509155564,352.85158373233725,W
8602.2109375,8602.359375,8603.046875,0.8359375,180.04963053763663,259.32314739471013,1230.695965985896,1724.8563248738915,260.7643793196534,371.8495285008479,W
8603.421875,8603.6015625,8604.9140625,1.4921875,173.96583064929428,251.16891144676907,1007.1013024681828,1388.8729841510308,131.94457366794336,191.51598511095247,W
8607.359375,8607.5390625,8608.34375,0.984375,163.83339032099235,244.55456444547855,930.0151015002186,1330.2111653932768,204.03528484108963,300.8787634823638,W
8608.515625,8608.7890625,8610.09375,1.578125,131.0046882974324,200.8865964811778,487.41172089060046,716.4611992214745,97.61782588245502,150.50426513214302,W
8612.515625,8612.671875,8613.40625,0.890625,158.90495086309113,247.44502869200346,1050.4193122224237,1551.2691387321179,210.3295297153173,334.69105124165804,W
8613.71875,8614.0234375,8614.703125,0.984375,207.39143237219554,274.57546842304623,706.0208662623317,890.8212172597687,296.28927723147945,410.72034027543407,W
8617.6640625,8617.84375,8618.625,0.9609375,163.2398880017427,240.37376711913922,935.1268619491198,1346.9779094366004,208.699170494104,306.26636582244436,W
8618.90625,8619.09375,8619.8828125,0.9765625,151.821876406811,225.16264959078325,839.1320221129577,1174.9567408107127,178.1977450237173,281.3499577843106,W
8622.828125,8623.0078125,8623.75,0.921875,159.33485080851938,236.9822551285505,892.8523479953067,1302.0664019570934,215.3738276344688,315.40161611129406,W
8624.0546875,8624.2265625,8624.9453125,0.890625,162.24474261800717,244.6635434475162,969.2725085119029,1379.7307464133125,200.96586904860678,338.52655133349515,W
8627.9921875,8628.1640625,8628.859375,0.8671875,148.06736751251452,227.601168933566,912.9891583812076,1315.117873933761,219.4320390716183,317.93924544477113,W
8629.203125,8629.390625,8629.9375,0.734375,171.00700746766694,233.26439088205098,938.9623924477237,1227.7462596770035,274.7585891086558,398.7874694454399,W
8631.34375,8632.0234375,8632.2109375,0.8671875,52.97942902836518,51.853714119651805,75.48409820439764,77.20322326031486,275.5709970414269,110.35387031974,W
8632.21875,8632.4140625,8632.609375,0.390625,73.43482412123863,74.06020481690352,372.0719991640045,218.49217883037505,466.9021904669259,272.76446076559716,W
8632.6796875,8632.796875,8632.9453125,0.265625,44.46476191426386,41.002529105283344,548.958213047283,173.25914762731142,313.9870933490412,221.10079042708094,W
8632.953125,8633.1015625,8633.15625,0.203125,39.2411163454301,55.168901732864306,235.39151107165364,414.7052789997867,503.6223196393695,816.6346993075564,W
8633.1640625,8633.296875,8633.96875,0.8046875,118.62399935243188,186.00350319394673,933.9198696206795,1402.4891996981823,174.4194138909559,276.34345610108215,W
8633.1640625,8633.71875,8633.96875,0.8046875,35.95859701622512,55.42301403305396,74.58403217629699,100.39456031372995,138.09056548711692,220.35108162808726,W
8634.3671875,8634.5390625,8635.359375,0.9921875,127.33328329927964,208.22771547400302,760.9499859719338,1221.9575529032174,129.86868051714333,238.3916963586499,W
8638.2890625,8638.46875,8639.03125,0.7421875,161.4112403318548,239.99693121381557,935.7080226450961,1316.1729523883441,289.69536935923304,407.52190179171595,W
8639.53125,8639.703125,8640.6796875,1.1484375,220.881595951905,298.5874460352705,1317.3311697578288,1673.4314999151431,227.25116649899044,302.02618328197644,W
8640.6875,8641.140625,8641.765625,1.078125,98.85314594565509,81.99470592082554,213.1079114368765,186.42536869260658,144.26563577438182,141.33769406586126,W
8641.7734375,8642.328125,8642.7421875,0.96875,65.80939601922756,59.16576931681057,131.10949125632246,92.02965474574452,104.66309568633444,192.01842784106682,W
8642.78125,8642.96875,8643.15625,0.375,93.52541733398743,82.24434056126869,390.6562060168103,550.5616711660988,430.8682003564541,486.51630833312333,W
8643.390625,8643.6953125,8644.390625,1.0,180.6391496650565,248.28440580041493,562.4548098486135,765.3112131613626,252.59628678392497,358.856312018435,W
8644.6796875,8644.859375,8645.4375,0.7578125,187.4035274531594,251.5148814776952,1050.9088982551432,1372.9171420121602,297.0631901233056,449.6087879251479,W
8645.7109375,8645.90625,8646.1953125,0.484375,27.950442812579503,67.78122752503447,158.07378487206185,317.5583733203933,51.03217829415602,163.45128656090856,W
8648.6015625,8648.7734375,8649.546875,0.9453125,162.78856800519287,251.83256158281634,1001.2765569389951,1448.7385986852141,208.6186873196326,324.9873616798401,W
8649.828125,8650.015625,8650.8515625,1.0234375,146.03486002239865,232.5994194304195,808.6644358527668,1225.2947050501941,154.30785328199718,274.65995469352157,W
8653.765625,8653.921875,8654.7109375,0.9453125,150.9455591312069,240.82088471475123,1015.366059108148,1488.6421841607464,193.29484309923714,300.6439821618454,W
8655.0,8655.1640625,8655.8984375,0.8984375,160.08661385360796,282.18103697491284,992.6124190833758,1686.7153678283455,204.80287741316306,382.79334161692896,W
8658.2734375,8658.4765625,8658.671875,0.3984375,56.830281212348105,81.15978643408508,283.755641317016,310.63130239785147,230.19152739583336,284.77843743021276,W
8658.9296875,8659.09375,8659.7421875,0.8125,157.9284283556229,217.05798853410283,986.0835170724864,1295.4211556253085,252.43180367097642,324.5562691149409,W
8660.1640625,8660.34375,8661.0390625,0.875,177.84145302443974,244.07609328761922,1027.496908500345,1323.3188796691009,242.11956202538866,355.9217210315535,W
8664.1015625,8664.2578125,8665.03125,0.9296875,134.82678124628364,207.54796261972874,895.491171650996,1324.8027706158841,171.84695169933565,264.2702832594715,W
8665.296875,8665.4765625,8666.0390625,0.7421875,224.57254300045375,297.0300455790344,1308.8539547823584,1624.563247043123,390.21108944161136,521.7364509255103,W
8667.5625,8667.8515625,8668.4921875,0.9296875,37.321632841965375,61.41766540962809,74.41501509679243,264.5439173791447,42.51113045663069,109.09582269841422,W
8669.234375,8669.4140625,8669.984375,0.75,184.74911496722405,259.3791806860382,1037.7172793307016,1417.3727989642432,322.5934816352714,455.6202839800032,W
8670.46875,8670.6640625,8671.3125,0.84375,147.62609987532082,211.46430019664334,805.4352557167418,1062.9028129610801,215.95446323666383,331.25852449341727,W
8671.3203125,8671.578125,8671.8125,0.4921875,51.598161906474985,41.777704625505976,221.59066231025986,138.71653776730753,188.3627320544068,200.03128839914478,W
8674.40625,8674.578125,8674.9921875,0.5859375,173.0496950766693,260.2669061220536,1034.0617828183122,1516.4214675997712,404.9009406501292,635.0449900279482,W
8675.609375,8675.765625,8676.7578125,1.1484375,96.95538797241795,128.62206333367442,544.0321451499419,803.4049078044649,95.7133732504346,129.31792709447717,W
8675.609375,8676.046875,8676.7578125,1.1484375,59.728083998238645,65.21554144489713,109.20621418399801,142.0011313272465,81.21432411110156,91.28947185972645,W
8679.5625,8679.71875,8680.53125,0.96875,151.74099508871132,228.89304074591925,992.1236872419834,1470.0233451175332,186.94076715420027,280.90846881399483,W
8680.796875,8680.96875,8681.578125,0.78125,149.4268798271923,222.79333763814645,889.4759024548549,1297.3902567074588,215.85829458897547,373.34524726946864,W
8684.7109375,8684.890625,8685.6171875,0.90625,177.31269811849285,246.05863354484293,995.2794062365682,1350.6110927849197,243.26997026456377,336.4387822788151,W
8685.9296875,8686.140625,8686.8828125,0.953125,174.68519850071783,256.5135867466594,847.7721008513946,1175.8713862584166,217.46840257794392,348.06344213644496,W
8689.8671875,8690.0390625,8690.7890625,0.921875,155.8077727606556,230.39507369614768,907.0735132072911,1354.2684561354058,207.3252329358899,300.5386835196153,W
8691.1015625,8691.2734375,8692.0234375,0.921875,136.90693537109053,221.02847815988892,851.7333275874006,1260.8640646268989,142.50058195150945,283.5013318955115,W
8693.8046875,8694.515625,8694.7109375,0.90625,43.10907990187198,38.860616901995705,59.55725986655111,55.55108430271338,200.1431274340032,213.793953688374,W
8695.015625,8695.1953125,8695.953125,0.9375,218.0824226468549,277.6066705272037,1227.5523050740119,1581.4514208683097,285.4917357201635,367.2446498221693,W
8696.2578125,8696.421875,8696.9375,0.6796875,182.4080584158831,258.07192330525254,1162.5892613202077,1548.1152359023893,341.8141579011429,493.3241842641813,W
8697.6015625,8697.828125,8698.15625,0.5546875,113.89864793455926,85.1690249921395,514.2314418702815,363.73542990053954,309.41955938959154,242.00299285876895,W
8698.1640625,8698.4453125,8698.75,0.5859375,82.0486056172043,48.85347064244632,246.40265323593692,154.78082548360777,253.81727118870205,160.59575549217726,W
8699.2578125,8699.4140625,8701.0390625,1.78125,115.53543851776591,66.74948979887843,710.159171923358,481.3649847118086,64.3612618954056,26.896788638367873,W
8699.2578125,8700.3515625,8701.0390625,1.78125,82.01347959987326,111.96409618390133,70.80266212126358,110.1054950822793,103.36740605402393,129.34092788708466,W
8701.0703125,8701.3515625,8701.4140625,0.34375,51.108426709490374,45.95341257158436,137.98763076207976,88.90365280580441,462.69155690769793,701.4413267116789,W
8701.421875,8701.65625,8701.953125,0.53125,248.46901515549294,222.39738799170448,1107.5431982970447,908.1448708645759,764.4191014113184,724.7610923075259,W
8702.25,8702.828125,8703.21875,0.96875,62.58868937446668,44.909130248719244,103.18712238889098,58.582792070442224,83.48678159772446,109.18024362196795,W
8704.9375,8705.2890625,8705.3671875,0.4296875,47.318433935417,82.28708602396652,62.6725821207294,205.4880315819314,420.27441342285283,900.4896817495677,W
8705.375,8705.5078125,8706.0703125,0.6953125,102.99079643682555,166.96908314512834,829.3093664767554,1249.771826132929,185.5046551844628,287.17382534663494,W
8706.578125,8706.7265625,8707.171875,0.59375,144.316272798627,195.7820307387419,1025.3856636841429,1316.34484357508,279.6399454667849,403.75977518147783,W
8710.40625,8710.671875,8711.40625,1.0,222.61078776468938,238.267565283849,793.0832540819375,831.060669408172,287.02787027213367,337.9202547956048,W
8711.765625,8711.921875,8713.6015625,1.8359375,131.60337263383028,172.68332114974854,826.3313727262378,1129.3546788907902,62.017677775652,102.66723231333044,W
8714.203125,8714.8203125,8715.3515625,1.1484375,47.70405312963979,66.69672556789588,81.8539540509947,103.15823258947799,54.64508924597038,109.6628382043594,W
8715.640625,8715.8203125,8716.6015625,0.9609375,185.34276296398085,236.07873258516662,981.8005309688115,1341.1053280467463,235.38610572840463,302.4902431698396,W
8716.890625,8717.078125,8717.8515625,0.9609375,168.96563903695798,244.48565095835465,920.315073799478,1320.8435310760683,208.2284866236347,314.76696277029606,W
8720.8046875,8720.96875,8721.734375,0.9296875,167.32764746286324,230.4340180872805,1025.176999834571,1411.7691760109406,215.78922619772482,297.1539892341957,W
8721.7421875,8721.890625,8722.7578125,1.015625,42.70189236470269,66.3108927135418,281.0203608856814,428.0310176255468,30.010642360978874,90.97975822367496,W
8721.7421875,8722.1953125,8722.7578125,1.015625,104.44367659143792,189.3202767080077,228.3161247905182,411.68604286512107,156.0295789318162,358.9438099183272,W
8722.9921875,8723.4140625,8723.765625,0.7734375,48.0632227878697,67.47177226824604,82.71652265415239,189.85519433012013,138.37068846149504,179.41751098130928,W
8724.921875,8725.140625,8725.5625,0.640625,159.62033749068613,149.64099847411381,716.2043916592432,702.4454444676429,385.4937611499738,343.6908674009025,W
8725.7578125,8725.90625,8725.984375,0.2265625,43.01299291958358,60.338597807037715,229.08534490464004,349.6258970398013,444.5309356699043,687.5277362665422,W
8725.9921875,8726.109375,8726.2578125,0.265625,129.2551437121942,189.03817419634555,1084.5978826486992,1540.3976126455846,838.9416753313825,1228.4193528730439,W
8727.234375,8727.359375,8727.59375,0.359375,105.03013530926687,122.46847436856578,748.5160184366696,1072.3625355549177,354.9435003394609,504.6989762449417,W
8731.109375,8731.2890625,8732.0859375,0.9765625,167.82954035888318,225.96276528561194,960.2483598586444,1267.7356467549282,207.7974459359471,284.81240022057926,W
8732.359375,8732.5390625,8734.0390625,1.6796875,157.68503585871233,226.78503167640457,895.7194982320398,1262.907703902702,103.53022092503134,147.4745563934363,W
8732.359375,8732.984375,8734.0390625,1.6796875,35.20590901679962,46.53235744211017,61.552752794651134,74.68168609715573,31.114623569193995,38.83535204111173,W
8736.2734375,8736.4453125,8737.265625,0.9921875,160.9954708347092,238.95122476888466,949.0044224423013,1364.4391817768267,196.09606226296899,289.9724618115761,W
8737.5078125,8737.6640625,8739.0703125,1.5625,137.65883993206543,223.86233283257818,904.7537846729177,1398.5270693479176,93.11848514835098,151.7669677480732,W
8741.4140625,8741.59375,8742.375,0.9609375,167.5170719480386,251.96356581725357,958.0474585491935,1412.1197974203544,213.81321497590238,321.70761640907585,W
8742.65625,8742.828125,8743.5,0.84375,160.7211983718358,241.05095344611692,965.6482379324817,1402.1077016573063,226.8643170062724,366.56146925402084,W
8746.5859375,8746.7578125,8747.359375,0.7734375,154.62429969701935,238.43498133361524,889.5193718912216,1362.534518592714,267.2832341619479,384.95846138013025,W
8747.828125,8748.0078125,8748.8515625,1.0234375,158.6682384115219,242.7230629292866,881.0708494116706,1341.994393558072,173.8914184224084,283.5341756016484,W
8751.7421875,8751.9140625,8752.296875,0.5546875,160.06113243831055,214.43905981520308,894.0505106025234,1263.4131948093036,394.6360685999318,496.0341362743184,W
8752.4375,8752.546875,8752.6953125,0.2578125,40.47018011470636,51.8305150970764,298.3307018903564,537.6398624423072,206.97272182919457,390.6407154190961,W
8756.90625,8757.078125,8757.828125,0.921875,132.20177067061445,242.90627895399177,779.6229883652491,1445.662801242623,178.11634960588222,321.2225550089282,W
8758.140625,8758.296875,8758.875,0.734375,128.56764345365713,251.86879486885152,803.6373070241151,1633.960068174733,188.9200486726289,464.85453246010866,W
8758.8828125,8759.9140625,8760.2734375,1.390625,61.35645792618638,64.73397127579106,76.80709024208112,43.40831601038584,132.901491574774,203.4336882917584,W
8760.421875,8760.6015625,8761.390625,0.96875,32.778831824232924,50.29683873665306,155.5489767941576,304.3180283097569,15.566998675645591,54.359903651928285,W
8762.078125,8762.2265625,8762.609375,0.53125,100.91026693996137,157.2015148076877,657.9994900711457,1061.4379163807637,233.27077905365152,344.83171834264584,W
8762.765625,8762.890625,8763.109375,0.34375,76.77161905412112,75.97378946606543,557.7597505224439,634.3177663492958,362.9672462878951,323.1834853392625,W
8763.2421875,8763.453125,8763.75,0.5078125,57.70601530532982,80.56532143796778,274.8915811254204,379.3126678360675,217.34108190161254,233.99374800595476,W
8764.3671875,8764.6953125,8765.0859375,0.71875,54.74904174456109,30.17725953506816,148.093701211471,113.75058597948724,137.38291166809267,77.7265202523845,W
8767.203125,8767.359375,8768.15625,0.953125,162.34824621129397,237.8740246711001,1085.2776612671098,1523.3595842789694,203.29707726044148,296.13850916280217,W
8768.4609375,8768.640625,8769.3828125,0.921875,162.10124102248494,226.5120145349445,881.9668839575913,1253.2707207141293,203.338973121139,296.36731470207224,W
8772.3671875,8772.5234375,8773.2890625,0.921875,164.53020469838305,252.18424707018627,1075.3839802967536,1554.168424951053,205.70728696112914,329.40945915945866,W
8772.3671875,8773.0234375,8773.2890625,0.921875,58.45850418671288,58.34069724637115,94.41073738620587,74.65945382824674,193.59224872637859,219.710371181724,W
8773.6015625,8773.765625,8775.0625,1.4609375,144.42232528041637,210.5749905825628,911.3972009359799,1279.82413322095,94.40384055748058,149.9643042558041,W
8776.0234375,8777.2890625,8777.4296875,1.40625,43.73264910839302,62.46869021080139,34.17613406632789,41.32098904391327,270.9374480417059,424.2467331065539,W
8777.5390625,8777.671875,8778.4453125,0.90625,119.44333399642682,167.8402648882349,890.6679031791247,1241.8699585892755,150.4311972680297,217.942395470298,W
8777.5390625,8778.2265625,8778.4453125,0.90625,42.849369012433385,60.368703350567465,60.65144131924956,83.58442521813919,181.73789327084938,279.2834740977882,W
8778.78125,8778.921875,8780.21875,1.4375,119.30062331891997,169.46452220710654,836.9199829220456,1178.6876593109132,89.70810066838679,127.03563073646971,W
8782.0,8782.484375,8782.5859375,0.5859375,29.315516357932278,57.72362500292688,102.30945299802535,76.4563109190869,299.3925841567574,496.750319408696,W
8782.6640625,8782.8515625,8783.625,0.9609375,125.26133735958797,166.98123788106062,714.2347460672909,839.8509939932305,167.7540999330482,207.479146366064,W
8783.921875,8784.15625,8784.8515625,0.9296875,145.9927655977178,190.9175633263217,619.0976024670211,822.7365959893978,175.6346892160699,257.33260934760915,W
8784.8828125,8785.4453125,8786.09375,1.2109375,40.52663082172053,57.479681523512696,33.04576785739849,79.40997949390885,51.37609713496592,92.82092405985266,W
8786.4453125,8786.921875,8787.5625,1.1171875,44.95365534377173,70.23573599969899,69.03798071265824,133.7631396500608,63.62757653502351,104.56257337315361,W
8787.828125,8788.0078125,8788.75,0.921875,128.2152612614121,215.24922062481784,747.0308396343089,1192.2403328293335,181.12558485548942,278.44340760562056,W
8789.0859375,8789.265625,8789.96875,0.8828125,164.45064813597645,232.7052335737061,883.9549270610248,1300.600083071256,207.54493074141465,317.51588516786893,W
8791.890625,8792.515625,8792.796875,0.90625,46.05245129889235,70.70785741434234,50.472010732466075,80.14998279894162,141.97174346111476,128.16295392669915,W
8793.0,8793.1484375,8793.296875,0.296875,152.24419202048608,210.93220470157212,1046.067376400716,1358.7113042325382,1164.9670868876408,1230.715043129103,W
8794.078125,8794.203125,8794.265625,0.1875,37.04379787440012,57.998354003654974,329.6411660233756,433.1994354384077,449.89844267522653,649.0988557217167,W
8794.2734375,8794.390625,8794.59375,0.3203125,104.99935888320192,141.75589894306438,896.8045087306383,1255.6747105841737,494.36553153557145,665.9850550707771,W
8797.984375,8798.1015625,8798.15625,0.171875,38.92349371441149,50.92791891502235,198.17072258206628,261.0625811549718,327.15971785159064,866.9580212165627,W
8798.1640625,8798.328125,8799.140625,0.9765625,140.3319047295478,212.83627898247468,948.4260505689398,1251.040326689001,173.12019406568075,244.0024763875467,W
8799.390625,8799.5390625,8800.078125,0.6875,136.00012101326584,281.2434113422318,923.5459148071162,1924.8283721880814,202.36288317300773,511.1129540149053,W
8801.78125,8802.328125,8802.9609375,1.1796875,76.2681120158587,98.62377732686429,151.19413372263745,159.6333871896827,132.8896945757265,140.99289149636422,W
8803.3125,8803.46875,8804.3125,1.0,97.64014182288925,180.427134308484,641.2585269763746,1140.425404913383,115.19754405561095,211.442873228262,W
8804.5625,8804.7265625,8805.859375,1.296875,192.67314038302615,261.2084072898248,1130.8124066076523,1616.9449565230063,167.96361630638796,229.8323030099487,W
8806.546875,8806.71875,8807.21875,0.671875,89.23174745234915,101.83463226408233,455.63192308422674,652.0788897352469,175.9391531220638,202.58564366242558,W
8807.2265625,8807.5703125,8807.921875,0.6953125,127.82169631158617,95.76812651629459,371.68695767761574,281.07608583831956,271.1254818512615,360.7415549274376,W
8808.484375,8808.640625,8809.3984375,0.9140625,189.37725298641615,247.0798277475883,1301.9026868069477,1452.9111313865506,252.30413070110112,319.15914666554175,W
8808.484375,8809.0859375,8809.3984375,0.9140625,64.26348026655452,84.32483654946374,130.1752055583983,106.8257630437801,211.47344424661293,253.14495882994024,W
8809.7265625,8809.890625,8810.1015625,0.375,141.44427963260424,207.2916760999553,813.9397847451185,1280.603663309461,726.0401184983705,918.5608157115986,W
8810.1328125,8810.2734375,8810.53125,0.3984375,45.59593835463491,62.80191313911065,408.02459922212324,322.5319650243043,129.08877314633193,155.95357997983388,W
8813.59375,8813.7890625,8814.3984375,0.8046875,164.0844251868332,254.54073556173412,876.8865771411547,1281.990591684242,276.87246948287,407.8081347384179,W
8814.875,8815.0390625,8816.1328125,1.2578125,179.08247056018914,202.34580025076778,1012.8923650953428,1268.6322598042293,162.31585227202604,184.46320266605935,W
8816.4765625,8816.796875,8817.03125,0.5546875,66.22799756568713,51.735377955430785,166.73406125597555,114.63428681936938,271.00686843903105,206.30161916031253,W
8817.0390625,8817.40625,8817.8515625,0.8125,42.85158788191776,57.94192122221851,117.7214694691598,160.34157861708144,64.21220535720593,157.6723988905511,W
8818.7578125,8818.9453125,8819.53125,0.7734375,171.55560994421313,259.1826542883027,934.0621515022202,1368.0658866494166,285.11006226095344,392.9810556874753,W
8820.0390625,8820.203125,8820.9453125,0.90625,174.25651441719643,245.54291612667802,1027.6508514611016,1490.434924492571,219.71731622477475,341.69083051207804,W
8822.4140625,8823.078125,8823.3671875,0.953125,28.416398943723934,62.95114414379052,34.37994381283063,80.92623647364987,95.59439792866793,171.7930199542151,W
8823.375,8823.4765625,8823.609375,0.234375,70.23481109027301,47.27677994701136,643.3638796331203,543.3760488501389,499.55837043305337,342.22313032592,W
8823.8828125,8824.3203125,8824.8984375,1.015625,105.66598835016809,145.45419356107607,225.9893818837529,285.269810258951,185.8191283063417,244.57267248219924,W
8825.1953125,8825.3515625,8826.0390625,0.84375,159.37742607581552,222.50384198643718,977.9431758412836,1431.2952667829327,195.98803549070965,319.0533698572199,W
8827.9453125,8828.5859375,8828.9921875,1.046875,31.10255256087162,51.16994633247452,49.6441882949989,67.50756824315405,68.47041068755173,114.40772915471462,W
8829.078125,8829.234375,8830.0078125,0.9296875,177.83461779181675,237.54548260865624,1143.143789949108,1535.3457958632475,227.14558529396766,300.1755488554383,W
8829.078125,8829.59375,8830.0078125,0.9296875,57.134783355093035,67.77475375675027,112.32268168305337,136.00397915486343,132.7893233245691,150.69294421970622,W
8830.3359375,8830.8828125,8831.921875,1.5859375,75.03998075457854,65.43896296976214,101.68362414643097,152.17118352277961,60.16871929119822,51.16676545754074,W
8830.3359375,8831.4453125,8831.921875,1.5859375,48.01798963159477,67.12367869209457,25.767879059917227,76.5325806975572,74.4856524915974,115.09546587395852,W
8834.2421875,8834.4140625,8835.0703125,0.828125,123.95496215449498,226.92968873293782,736.7665167795823,1309.666062008087,189.9738443213172,325.7493297530706,W
8835.484375,8835.6640625,8837.0625,1.578125,167.37535664584883,233.7262084002711,932.5387567118239,1341.5638307306647,115.57255936444989,170.82421707848073,W
8835.484375,8836.2578125,8837.0625,1.578125,40.33875850289427,41.46312018071436,52.401079212866314,63.09386681517194,42.97867537804222,57.940384125677554,W
8837.9140625,8838.46875,8839.0859375,1.171875,98.45749245708024,104.31396787256868,177.50295652710537,186.9605741232264,152.7921850657174,169.4801995132472,W
8839.40625,8839.578125,8839.9609375,0.5546875,164.82466033965918,231.43750934633448,946.4181786920682,1377.8375612363413,426.4282084740237,596.813282680167,W
8840.0234375,8840.1484375,8840.25,0.2265625,43.32897049616489,41.08499880832391,355.8865037496288,330.20935489214344,383.45091458744724,333.0039478447965,W
8840.6796875,8840.796875,8842.5390625,1.859375,83.52926814038206,127.5042230239635,532.3803370117311,1273.2714465981164,46.408228881678056,72.47685790944374,W
8840.6796875,8841.6953125,8842.5390625,1.859375,86.3074552025085,72.42198492883244,64.16394614713963,92.68111709842285,99.11706467191104,84.36863738545534,W
8843.34375,8843.765625,8844.15625,0.8125,184.137000183518,139.41308177058883,449.06253115232096,320.08131838938243,439.47553152103416,325.7139058156263,W
8844.546875,8844.7265625,8845.4140625,0.8671875,212.9975013122208,273.2376595528399,1194.3208294251476,1499.103797033581,306.60590613451797,397.797371383425,W
8845.765625,8845.96875,8847.3125,1.546875,182.58263679520982,211.40694632021388,801.2683462806525,1129.2154641306413,136.14129407262735,155.58713106076547,W
8848.515625,8848.9453125,8849.3828125,0.8671875,140.94085412814022,121.38220227342359,316.52568545001355,251.8913037636274,308.29757687788344,276.1833514667334,W
8849.7109375,8849.859375,8850.625,0.9140625,143.64992119373053,224.19951170429445,937.4354727519412,1505.385248182648,185.80699059481344,291.71403151629323,W
8850.9609375,8851.140625,8852.0078125,1.046875,164.78275503056602,238.41909531074012,894.3209739320176,1365.0991561025696,170.92610442049607,292.9914469726549,W
8853.5,8853.96875,8854.671875,1.171875,184.76825353936246,127.74697546315993,409.2576658888116,254.94197110122195,238.18853745193152,196.51980974056525,W
8854.890625,8855.1640625,8855.7734375,0.8828125,173.97139423676296,172.3667792878962,637.1477541859397,610.1210917612564,290.91067498663494,271.82203688125145,W
8856.1171875,8856.2890625,8856.8515625,0.734375,158.49476065735297,218.90815215684447,886.3668340965173,1307.8944968268192,251.1018554608133,412.5524278156514,W
8859.109375,8859.265625,8859.34375,0.234375,49.60951832570404,37.00363313051242,238.44000693691873,316.82900014969925,515.8197035762655,407.069123957614,W
8859.3515625,8859.515625,8859.6328125,0.28125,112.30328876559818,79.44209985005153,696.267113780698,486.8190478635691,990.7461013682628,569.8072570703841,W
8860.0546875,8860.1953125,8860.7109375,0.65625,106.83000993464661,163.52913780583992,755.128732691896,1216.4180831575948,185.92958377141883,295.3714576043059,W
8861.28125,8861.4453125,8861.9296875,0.6484375,110.5790741185107,187.43994759270564,661.6806460956894,1132.1579565704042,207.57098160163088,396.8887728440112,W
8865.1875,8865.3515625,8866.0703125,0.8828125,134.27609363322034,224.45635076180557,801.819320156966,1348.8258421379483,184.25205827686298,312.5255198035832,W
8866.421875,8866.59375,8868.0390625,1.6171875,162.35850500890416,239.7306741812305,947.3668648507104,1425.555041083442,107.95745854567463,158.9594338895881,W
8870.34375,8870.5078125,8871.2734375,0.9296875,220.55343840899994,285.0595474949009,1416.5857718945167,1678.4994432448261,284.07259744228065,371.885282062416,W
8871.5390625,8871.7578125,8872.46875,0.9296875,175.58453489076146,247.09291150163924,752.1596439497181,1122.4488688214258,242.75197093618303,337.30528631123167,W
8875.5,8875.6640625,8876.390625,0.890625,174.95248811211985,235.09999764201072,1075.8311835756151,1410.9194283443383,236.77716137213727,324.9562467715858,W
8876.7421875,8876.9140625,8877.796875,1.0546875,233.14370733311088,259.6506614430977,1370.1071242119524,1535.7348353208379,258.9145715568142,296.49065950269005,W
8876.7421875,8877.546875,8877.796875,1.0546875,49.04286865752028,38.073512594109474,63.85873186589666,52.66302256687323,177.8887261076377,160.67404597292148,W
8877.8046875,8878.109375,8879.09375,1.2890625,86.70752392100647,67.90634651197881,290.9653044609692,209.23389617430772,84.26077817075158,69.32249971709172,W
8879.1015625,8879.6015625,8880.484375,1.3828125,55.91573679250423,34.75337344540748,116.71720778774693,66.79295069289948,62.479029422929514,25.07113894352457,W
8880.671875,8880.8203125,8881.421875,0.75,103.21941633604304,188.49780329032626,676.440448173698,1242.5072198731054,148.56205536172632,291.662942786,W
8881.7265625,8881.8515625,8881.9140625,0.1875,31.340435608938655,49.50471172472203,192.89362594743358,356.1911887186935,339.29789246192365,656.6914495797043,W
8881.921875,8882.078125,8882.4609375,0.5390625,132.59126080532474,202.6845500780935,868.9669299581268,1275.7419038918877,342.54643190300067,517.8392928681196,W
8882.46875,8882.8828125,8883.2421875,0.7734375,52.16088101478065,52.13890550833029,125.11762102729406,130.36255457883667,148.47001907376352,136.82393083396468,W
8883.6875,8883.7890625,8884.0703125,0.3828125,42.913472852328425,45.480120963562186,455.7773859387838,457.7786661523336,150.1610702490097,156.18346320071316,W
8885.796875,8886.015625,8886.5546875,0.7578125,42.04702723704746,83.06576517041543,189.25422387490377,367.6008629959768,82.44672153061627,145.19047996433673,W
8887.078125,8887.21875,8887.8359375,0.7578125,145.6197841623149,220.64214105113635,1027.5964747120663,1532.0181706882806,223.7107729951909,367.33725102986176,W
8890.96875,8891.09375,8891.2109375,0.2421875,81.1971219214191,127.88135270863958,659.4067352659304,1037.1414747481958,718.0296585596352,978.4822476568747,W
8892.234375,8892.3828125,8892.9296875,0.6953125,93.57923945913001,135.37263279507684,648.8692715877863,948.1195972359391,167.1956135356626,249.94011371343663,W
8895.953125,8896.09375,8896.15625,0.203125,73.47017186718452,82.45838677263848,487.51226278967465,642.6809183725231,755.650799060149,1198.2223195347872,W
8896.1640625,8896.2734375,8896.4453125,0.28125,96.48370488926683,150.877271901683,1035.0865470455326,1323.456346347744,525.4680593437465,884.7574863767841,W
8896.96875,8897.328125,8897.390625,0.421875,46.8115674971754,73.02049918312134,135.3998354789457,155.41783487582686,566.2845190563239,788.6788911804148,W
8897.3984375,8897.5390625,8897.8671875,0.46875,141.73536948789524,187.64255025690207,1022.688736457065,1399.9766444179245,471.7522157868111,492.15305296396383,W
8897.875,8898.03125,8898.2578125,0.3828125,61.309689980330496,24.854091880357668,270.98590361856895,297.09220067046874,162.47984112687524,51.39007301796949,W
8898.421875,8898.8203125,8899.40625,0.984375,49.85351242050653,55.61013879854733,138.27030816317253,126.76644913017175,89.78406424556412,89.41318579237473,W
8901.0078125,8901.171875,8901.2578125,0.25,32.25926256191196,61.43619964946405,116.1948651265605,257.805122991623,261.8951988990302,644.9173256076971,W
8901.265625,8901.4765625,8901.875,0.609375,105.20807630131259,198.7459092867568,524.7864659192877,924.6331663561269,241.54376802470134,503.4610388163019,W
8902.3359375,8902.484375,8902.5703125,0.234375,60.24071991279713,82.37353141454756,366.9881033559415,587.7012984136904,646.6754095687012,834.3033680263172,W
8902.578125,8902.671875,8902.875,0.296875,72.03608008537039,129.83001051814173,719.803753961003,1363.0834047955839,371.9148402259943,496.3976762823024,W
8906.4296875,8906.59375,8907.3125,0.8828125,166.27129320307614,222.70843319534197,1045.8839653532864,1352.2553507801833,223.63734532410712,315.37108448890064,W
8907.671875,8907.84375,8909.1953125,1.5234375,162.3746547880976,226.38639950907887,931.8167986715868,1314.497227993488,123.33974790683405,155.88284464176093,W
8911.484375,8911.796875,8912.4375,0.953125,155.23759930635927,190.3651349900442,500.5954301816041,610.1182008481908,232.29724224706692,299.7135264272872,W
8912.8203125,8913.0078125,8913.8984375,1.078125,159.05770325935404,230.2173453237062,872.625935640283,1225.2533459103245,171.98619884500332,250.21310351740348,W
8916.7109375,8916.953125,8917.4375,0.7265625,211.01582829570822,238.3974766325046,892.789818820568,976.478421088778,466.1497637297708,452.94508698439057,W
8917.984375,8918.125,8918.8671875,0.8828125,270.98777420020673,308.8728191133256,2002.2400121144253,2114.7921096898285,366.35333335882376,410.75353885903735,W
8917.984375,8918.1953125,8918.8671875,0.8828125,287.5037253292916,306.3785509618922,1413.1245171326862,1398.0367278160531,429.27451643733866,450.0269752119195,W
8920.5859375,8921.078125,8921.6015625,1.015625,39.44217995522373,40.75970362845274,65.41691870237183,99.62879603133467,56.793306119286676,93.0628817065323,W
8921.90625,8922.078125,8922.703125,0.796875,148.21871583316718,218.85154989220192,846.4767847553637,1267.3423016505117,237.9536456054876,347.9162116978897,W
8923.1640625,8923.328125,8924.609375,1.4453125,141.37692672733388,209.84334683952022,841.11178381009,1291.9742237470227,115.55233375892436,158.24137025616048,W
8927.0703125,8927.2265625,8927.8359375,0.765625,155.35191235547663,229.7456740642867,1031.6437982414604,1432.8600786915088,254.13682395686084,372.43764169529396,W
8927.0703125,8927.5078125,8927.8359375,0.765625,37.33666204713798,45.750516766521116,98.6950700957475,91.17538285207459,112.30286259923332,130.9227599552127,W
8928.296875,8928.46875,8929.7734375,1.4765625,122.81698252186668,208.15738077082767,727.2972629711016,1176.0255606853464,99.84956290446463,152.32595293481796,W
8932.203125,8932.3515625,8932.9453125,0.7421875,60.478951381269695,143.6857154822024,389.2130647303024,988.3955009206453,90.37944419543261,245.61400325372787,W
8933.4609375,8933.609375,8935.0390625,1.578125,53.3862364308312,128.64280271497677,377.2431906371798,838.3597999644763,26.928597196106477,83.14839889958938,W
8933.4609375,8934.0078125,8935.0390625,1.578125,49.10454405878345,94.75295723046483,94.56519997834721,165.58479967582176,33.18088381261647,82.41103618641917,W
8933.4609375,8934.8828125,8935.0390625,1.578125,42.41260857132778,90.36979813759568,31.66481459390098,60.603800073737744,176.1654460435524,515.8606206360039,W
8935.1875,8935.4453125,8935.78125,0.59375,36.98673072384843,46.56418629421904,141.4050770298329,116.45516545452747,103.97191805491852,105.06200317953638,W
8937.3671875,8937.5390625,8938.234375,0.8671875,172.52473743660457,244.0172536859457,988.7529437530011,1449.2771758164433,238.22993228360454,358.41738933742334,W
8938.609375,8938.7734375,8939.953125,1.34375,147.62777790313572,236.47721599554498,927.4935054322337,1389.028411466715,137.70506171545185,184.84107924819068,W
8938.609375,8939.296875,8939.953125,1.34375,27.89671185498873,56.895502930186915,47.179399544478315,70.26292464130887,65.09390315321919,58.62552016798761,W
8938.609375,8939.4609375,8939.953125,1.34375,27.368889570608143,53.39834015344557,37.46996245425117,52.61927094506686,85.71947003920155,71.06201362996931,W
8940.1171875,8940.4140625,8940.734375,0.6171875,127.43919280379117,113.98272038823457,461.6806854177406,352.0323224241027,385.44779775586835,349.6963817759302,W
8942.46875,8942.71875,8943.328125,0.859375,135.28820131616217,183.11752841777889,532.0168617072309,737.3306169420325,199.19795588084102,313.9848179951718,W
8943.7734375,8943.921875,8945.0078125,1.234375,145.66765844425643,217.27575426796477,961.6941654402766,1448.6355843212598,143.5048912048137,185.2336666370533,W
8945.015625,8945.2265625,8945.7265625,0.7109375,64.50468951910557,24.77453708867107,248.79256335839239,181.95159004500195,82.32290328476341,61.14141164513579,W
8947.6875,8947.8515625,8948.5390625,0.8515625,168.6558281891058,232.41332934823149,1002.3186284547505,1402.5293832657171,229.76029823514062,349.2069484750648,W
8948.9140625,8949.1015625,8950.265625,1.3515625,198.6532780464896,277.5363089072983,1091.6796295315094,1463.7272088853795,165.8542685919036,216.31688984487508,W
8952.84375,8953.015625,8953.7265625,0.8828125,172.92199842592237,243.09094786267553,990.9998463972362,1435.4867597324555,237.10388525284057,346.02514784218044,W
8954.078125,8954.2578125,8954.9609375,0.8828125,144.1844764392873,236.13926108250416,837.6765929468268,1278.7679398839998,191.87338888062627,325.44029635653817,W
8958.015625,8958.1640625,8958.453125,0.4375,81.7516751779853,164.1368046564479,502.3982846020749,1206.6711835012422,246.0956015726585,523.1234789435148,W
8959.2421875,8959.4140625,8959.859375,0.6171875,152.53458284831166,240.36430728315366,940.3150503723925,1383.1907509451803,355.0390572412637,519.4968526779915,W
8961.1015625,8962.0703125,8962.4765625,1.375,51.757913905283715,51.27821784723183,61.37725546273453,45.507211187655635,106.38013141344861,125.35556004756245,W
8963.15625,8963.3125,8963.8828125,0.7265625,285.8408267954284,309.8847394186607,1820.0591656362947,1961.9477082833832,481.2462890221371,521.9457787265326,W
8963.15625,8963.359375,8963.8828125,0.7265625,293.4614860369342,288.9757643365611,1437.562603678409,1406.254052121497,538.9018430078918,528.7416871123602,W
8963.890625,8963.9765625,8964.125,0.234375,49.59628520628795,44.06405977956824,596.015747578456,567.0280407526654,223.44842116543202,166.48918904141703,W
8964.3984375,8964.53125,8965.40625,1.0078125,260.65170545077103,316.1480061369791,2006.5453762695615,2328.021261122215,295.8600751930463,345.21865932190246,W
8964.3984375,8964.6171875,8965.40625,1.0078125,278.4319307272096,303.3161115176961,1299.5407225702386,1354.781390278908,350.6158144257953,366.5545280473747,W
8966.0703125,8966.4609375,8966.8984375,0.828125,59.730923254771064,20.948097698130507,141.63309830611055,67.38821132437441,111.96243102496719,64.23969501286454,W
8966.0703125,8966.546875,8966.8984375,0.828125,62.30347406525517,21.09564380803276,121.49084293520481,55.54584374239687,146.64850313644732,80.36241828417563,W
8968.3125,8968.4765625,8969.171875,0.859375,174.16462860785288,241.51041544943487,1074.102909889747,1502.5430368026061,240.25839557830992,350.042609867754,W
8969.515625,8969.71875,8970.8359375,1.3203125,130.96256709446214,229.05849459946992,643.3251816934646,1128.4349496483367,124.18580239537505,196.64959777583294,W
8972.8125,8973.2734375,8973.4140625,0.6015625,39.969787777859445,83.30181003393209,101.42705382595251,167.21168878523414,263.9420514147021,577.082506018769,W
8973.453125,8973.6328125,8974.3125,0.859375,103.07207433453571,196.06774467220922,559.3444110303292,1107.5224116894615,139.28197067559367,296.84848300216373,W
8974.7265625,8974.8828125,8976.125,1.3984375,88.98394648574074,209.9770407173607,564.2370091837962,1357.4437793755774,69.59560002530003,170.34393570003363,W
8978.6015625,8978.7734375,8979.4453125,0.84375,157.09397205455764,242.45663329911895,908.0795695043876,1413.6992981107817,223.6512078688784,366.0541429539278,W
8979.8671875,8980.015625,8981.2734375,1.40625,168.98790459345736,210.92088905284768,1159.1831633462402,1386.5367977216272,137.0838078381944,164.27375877566854,W
8981.5234375,8981.796875,8982.1015625,0.578125,37.04733765571522,52.81282633860562,110.08348827732443,220.28095433194747,101.02140673712987,179.57519827429198,W
8983.609375,8983.7265625,8983.78125,0.171875,31.68088064397856,54.519324340629446,205.9221518918202,293.73265736641736,506.876784715983,821.1457528808454,W
8983.7890625,8983.953125,8984.4375,0.6484375,173.306307736002,232.1550509337039,1034.419473453579,1404.5307108050424,362.9073294252838,464.85511189815054,W
8984.890625,8984.984375,8985.046875,0.15625,52.75837330219754,48.11314344742678,458.72620985605516,603.5221126223832,437.0677311658374,787.5039082168915,W
8985.0546875,8985.1953125,8985.53125,0.4765625,154.7594971644216,198.02326401685863,1212.5309417241435,1303.7154871108423,439.32907448926653,533.3467576660738,W
8986.015625,8986.1328125,8986.2265625,0.2109375,49.79128522142869,52.08201057980302,393.173070314329,476.90493466071104,336.7017390673653,665.1678375716906,W
8986.234375,8986.453125,8986.734375,0.5,45.57584153536679,38.896913149934754,273.0023390825747,109.03111799528529,185.48331210112747,112.99288002529343,W
8988.4765625,8988.671875,8988.9296875,0.453125,37.84901778050403,44.01998303374068,155.6373457339977,78.58143575447605,89.9183528245618,173.01561848388118,W
8988.4765625,8988.859375,8988.9296875,0.453125,42.54394596776907,48.47247022361592,91.67111125142588,51.723556207468,396.4729390200516,697.7148633635678,W
8988.9375,8989.0859375,8989.34375,0.40625,125.76326393757785,166.42044461486236,888.9923632289394,1030.8444686869964,531.975078891566,576.3250045509798,W
8990.203125,8990.34375,8991.109375,0.90625,128.4678204515667,186.36415604993275,889.0322808088013,1345.8697986241518,180.89090273471254,225.0573578868459,W
8991.359375,8991.5078125,8992.296875,0.9375,68.00999707564837,41.81759221821097,346.9473335400997,389.5842063818607,80.06798615857014,53.46928535198902,W
8992.3046875,8992.5703125,8993.1015625,0.796875,80.74437293340837,38.226373911356,306.8051734990216,136.3470424092658,123.5763010603406,98.03616828053319,W
8994.09375,8994.265625,8995.078125,0.984375,167.54797346597292,239.03434667633863,960.4671249295236,1424.6115995343325,197.8937486273979,301.31013409398577,W
8995.3359375,8995.5078125,8995.9609375,0.625,143.59425460712896,205.9936966178221,885.2767803640021,1176.3829641590603,306.3371898095074,437.4813524556592,W
8999.015625,8999.203125,8999.2734375,0.2578125,51.5535373043102,89.78094685997779,233.90641642991758,359.3433961984588,487.4820039570002,1131.2380541574696,W
8999.28125,8999.4140625,8999.796875,0.515625,114.97601609000492,181.19330205371247,927.0265891592944,1317.0463513155028,305.1460617805337,457.1959392394945,W
9000.3515625,9000.4765625,9000.53125,0.1796875,35.74593827161175,60.21930470543312,336.1036568366428,417.9828859892809,627.5920638076211,806.2492746216848,W
9000.5390625,9000.640625,9000.7734375,0.234375,85.23602995350419,91.78761774624058,785.4408208012233,977.2847670394129,535.5006983708793,717.0932225743716,W
9000.90625,9001.015625,9002.65625,1.75,55.70327318300979,39.238997270352854,475.7491229172728,362.05502130427203,34.51364379642139,22.95849815694041,W
9004.3515625,9004.546875,9005.078125,0.7265625,117.20408972304348,224.2618393464205,574.6082703469893,1144.7852702777675,224.0667870029023,402.59938213185603,W
9005.6640625,9005.8203125,9006.7734375,1.109375,104.67148004385389,183.88604265559087,638.8357102766147,1208.9243109584684,108.2837526374435,191.71985160551944,W
9009.5234375,9009.71875,9010.5078125,0.984375,122.61765850946867,158.2447578564703,601.7129479075052,829.1171933844448,144.99224924891573,202.7085977251573,W
9010.8203125,9010.96875,9011.4140625,0.59375,113.30395145351815,149.2541730352059,706.1974860921761,1076.4096532948201,211.4068667404522,371.2159385088948,W
9012.21875,9012.453125,9012.9296875,0.7109375,94.23860666320098,67.69615452454579,457.1333615308675,248.33722923731008,207.06048127599257,127.33198088465876,W
9014.7265625,9014.953125,9015.2734375,0.546875,130.52861365518456,167.01306682301376,617.6922478320639,669.8565375516945,376.2064022696295,509.3421023022162,W
9015.9765625,9016.109375,9016.5078125,0.53125,83.75134500193563,179.3410514772646,524.6442242627616,1421.494475030479,198.96940128628924,453.568089041162,W
9017.5234375,9017.796875,9018.125,0.6015625,34.668549023617736,57.653003875317836,212.59124625864118,127.75545187517407,135.93031041282705,132.42157223960746,W
9019.9453125,9020.140625,9020.265625,0.3203125,13.815276652524785,68.88590688525187,98.71688561199225,321.4709920712718,142.55992940364547,445.3557905608051,W
9020.609375,9021.09375,9021.1875,0.578125,74.43189284607567,138.75796394393876,146.6710103184492,289.55804939453054,887.713218126476,1204.9661068491077,W
9021.1953125,9021.296875,9021.7421875,0.546875,105.57329598952381,119.46412356454047,855.1515248296442,1291.4071614853372,212.20289788456682,288.90673440924667,W
9021.75,9022.078125,9023.25,1.5,35.98308355278231,63.05242437826034,138.93012696427385,159.6529133259803,31.821892680480385,40.42894760812697,W
9023.4140625,9023.6953125,9023.96875,0.5546875,51.7109950862519,51.474832744507516,140.96338975662735,226.25289994101206,110.4571296799255,265.26267781402174,W
9024.859375,9024.9765625,9025.0390625,0.1796875,31.32701855359313,58.48179468508964,153.16331296277448,283.7356831708566,327.4264297792587,784.7702043281053,W
9025.046875,9025.203125,9025.96875,0.921875,122.54892551219694,258.94217354702596,813.5216277842036,1631.1549248488911,157.01543351098346,336.9693183284923,W
9026.2890625,9026.421875,9026.9453125,0.65625,119.83543583694822,185.89447056573556,887.9725659859016,1453.1740389664428,203.09803066676557,377.168922250018,W
9026.953125,9027.953125,9028.8046875,1.8515625,41.72496118295758,73.91972049885386,54.022740851826846,60.484144179180745,60.52478777411086,73.60406891785554,W
9030.1796875,9030.34375,9031.0078125,0.828125,100.00432117844908,183.25285435546417,636.55577299786,1087.8673586412292,157.55617773234408,264.1833638971175,W
9031.3984375,9031.578125,9031.90625,0.5078125,96.72890718958593,166.319545723583,476.3977739279188,1001.0686397103717,209.3788795420021,577.2169827229751,W
9032.484375,9032.6640625,9032.859375,0.375,51.609951765794335,39.10921610408533,184.1138525567358,308.149401326629,212.49114001793262,234.7361665087059,W
9033.296875,9033.7109375,9034.03125,0.734375,30.084677133172754,53.42800590483642,74.94528828776194,74.76394168551924,113.74245867418057,145.20377027701656,W
9035.3203125,9035.515625,9036.3828125,1.0625,129.36481233028067,212.3682586268642,641.2345508054634,982.8088007590721,142.65275346648386,222.39875415362016,W
9036.390625,9036.53125,9036.6015625,0.2109375,39.57184398982363,58.85936328078879,242.9915665178491,279.49386525387087,566.3943754643075,635.0587601282364,W
9036.609375,9036.7578125,9037.15625,0.546875,238.2683854960972,228.4391199004545,1516.1439733972056,1540.072006776938,539.4344097714463,617.7295018028691,W
9040.4765625,9040.9140625,9041.4140625,0.9375,146.5868816908201,221.2564810036421,382.4214224948754,467.15996142598544,320.5932667928387,412.0484647546717,W
9041.7421875,9041.9140625,9042.734375,0.9921875,189.2096936491886,219.344831703941,1037.545651497472,1344.1300992162903,204.5433995537026,292.0101259440294,W
9044.28125,9044.7109375,9045.34375,1.0625,61.52063901928399,91.23080194726037,154.071525094816,162.37133856408255,93.27532521020612,90.78912375960053,W
9045.6015625,9045.828125,9046.6484375,1.046875,174.30022236136608,285.1089934537523,817.3563008863404,1202.5272126106875,219.4919545851095,322.2907665304868,W
9046.734375,9046.8515625,9046.90625,0.171875,16.780704785884172,67.67040898999159,233.17818212736304,439.4013325477003,409.7771088709004,776.8961179750315,W
9046.9140625,9047.0703125,9048.1640625,1.25,192.4202957666095,212.3529387756073,1150.004883288284,1448.5077348639363,160.17129449191128,208.49801147926274,W
9048.8828125,9049.8984375,9050.7578125,1.875,53.4581750057182,100.84679125541238,56.15976913393396,58.86643417703251,63.39283102040468,93.62021940905164,W
9050.765625,9050.9765625,9051.859375,1.09375,161.7410981209862,292.3977926081026,778.0438653447068,1295.6480165589278,193.70354544445954,303.1520303267608,W
9052.0703125,9052.21875,9053.0390625,0.96875,173.26363855494816,211.34067243109976,1063.403000956251,1488.1128154305973,176.69906889531865,286.78192126216317,W
9054.453125,9054.796875,9055.6796875,1.2265625,80.26888421113118,141.2585218955337,272.78354205129676,359.56996714644345,98.90809214328777,114.92702090598854,W
9055.9140625,9056.140625,9057.015625,1.1015625,176.70934045299833,281.4874120601877,868.551424241196,1164.810476207673,223.16382413583966,289.3277734511359,W
9057.2265625,9057.359375,9057.9453125,0.71875,177.53754818241956,202.33657272228803,1146.0202203546485,1676.5325796612794,265.1758031965097,379.33435357018993,W
9058.2578125,9058.7265625,9059.796875,1.5390625,24.584431624160555,66.39884339666783,84.53228146218652,73.12208631072444,47.381885288697205,33.65730763192226,W
9058.2578125,9059.390625,9059.796875,1.5390625,95.20647247346685,97.347653931,97.32109045822342,57.57774432439989,298.67191371659084,164.8557479609205,W
9059.8046875,9060.171875,9060.578125,0.7734375,87.99857315140943,14.248144177540446,162.7067389064512,117.67827138493881,147.6086893772573,99.81847086521762,W
9061.1171875,9061.2734375,9062.3984375,1.28125,154.6477872859197,253.68829469686912,1056.288820933986,1497.359669381285,144.65600473532578,197.18698447941992,W
9061.1171875,9062.328125,9062.3984375,1.28125,31.08049343232767,104.982268661992,34.252663260773815,70.40530358168661,557.0945631807926,1040.0616036191325,W
9062.40625,9062.5390625,9062.8671875,0.4609375,157.23005134775113,149.93764578193918,1045.5651603660517,1250.9775846308737,377.26900239984053,542.7876709325648,W
9062.875,9063.8203125,9064.8984375,2.0234375,22.054499367609004,81.08505907169439,55.71647558458674,51.62923290621581,30.276691765654565,63.05624145914952,W
9064.90625,9065.640625,9065.9296875,1.0234375,20.21234121053923,85.1864728767637,12.694704669257263,132.0276498594267,86.44507126002279,273.22234673368746,W
9066.1953125,9066.546875,9067.0390625,0.84375,79.06126557373905,383.6141795522942,314.83429032131994,1000.8104512283375,183.56562716771984,723.3747805656731,W
9067.078125,9067.421875,9067.5078125,0.4296875,26.62643534911661,249.35004205128854,103.46416539117482,653.1344696816642,293.52298120827055,2305.5706581276922,W
9067.515625,9067.71875,9068.4375,0.921875,86.5277902610315,402.9197641680145,410.2221321774993,2074.551004277031,113.54649863875137,561.5173507091611,W
9068.4453125,9069.0625,9071.3828125,2.9375,7.046565866835589,110.7192174401118,18.855372650381337,173.9183620971768,27.78424304387989,21.925437874280284,W
9068.4453125,9070.8203125,9071.3828125,2.9375,18.076747350036097,179.91764823022726,9.544202859308522,74.33207153556495,134.21921408169433,213.46186374716697,W
9071.390625,9071.6015625,9072.09375,0.703125,118.2014855703509,469.3347495955111,838.54838850365,1947.4782813329668,279.53297461291584,884.9189043232025,W
9072.1796875,9072.640625,9072.7109375,0.53125,57.93440028853382,84.41696483933836,176.0198687809574,132.22767821234652,449.1585990485483,1258.9610274038469,W
9072.71875,9072.84375,9074.6328125,1.9140625,92.88177993782703,208.22724272011882,897.9434806723059,1515.0585738853754,50.83893143303197,115.1534953385643,W
9074.7890625,9075.6953125,9075.9140625,1.125,12.81597602679643,304.528836961615,24.59981071710964,325.15147594424326,6.778310564420987,1390.8999471223458,W
9075.921875,9075.9765625,9076.0,0.078125,10.289184184030871,214.98528813984194,17.05604038875023,3570.0568239236486,35.45932723506644,6022.594528876958,W
9076.0078125,9076.0546875,9076.203125,0.1953125,14.070207656021037,466.6757090565077,56.540378550225945,10482.983432777197,18.55306265625476,2938.4740209482275,W
9076.0078125,9076.1640625,9076.203125,0.1953125,13.80822952665854,524.1109017374762,15.285453537147806,3512.4802629913574,63.79499798208817,12636.542212236058,W
9076.2109375,9076.2578125,9076.3046875,0.09375,9.738956548144818,290.29247332877117,27.375133771092123,5622.062634863333,18.34996746533481,5078.825726061693,W
9076.3125,9076.3828125,9076.65625,0.34375,10.45343871735013,218.7629870913395,3.7703192353223534,3153.808195483236,26.74233587967072,711.0617686307311,W
9076.765625,9077.109375,9077.515625,0.75,12.49509683486005,587.1665641029065,31.886767932618692,1644.5443148815089,23.021827210573218,1358.2697953701568,W
9076.765625,9077.3046875,9077.515625,0.75,15.2332287003132,578.2756256268517,25.413024171206168,1032.2015902877013,57.319107175104094,2573.777379048635,W
9077.5234375,9077.7890625,9078.109375,0.5859375,15.114172793343513,485.657367949506,66.35075297993845,1867.1839102787733,22.918293755800512,1513.394019935225,W
9078.1171875,9078.4140625,9079.53125,1.4140625,0.01446285532765472,223.55972402832015,25.0451115955161,720.2763063011909,6.2193169428878425,191.98898402535735,W
9079.7265625,9079.9453125,9080.0234375,0.296875,0.49033183107056877,114.04230344028858,24.057707759897877,475.7763897108603,23.623483531019424,1218.890658198779,W
9080.03125,9080.2109375,9080.3828125,0.3515625,2.1786351131439012,370.9646929794895,1.8119486593349932,2078.8042677434637,6.712122550127945,2068.9848093915466,W
9080.390625,9080.515625,9080.6328125,0.2421875,5.267968388788756,171.09014417892544,13.967252506772244,1329.789587916562,10.666981919228624,1416.8542185990652,W
9080.640625,9080.765625,9081.2265625,0.5859375,2.888195887032376,102.09038108049253,8.451010403503819,804.453254587803,1.1959569983323721,193.4839938196905,W
9081.3203125,9081.78125,9081.9296875,0.609375,5.988731127541163,261.632342368532,5.337534124954373,577.9018819460925,60.83590754922375,1620.5063892186793,W
9081.9375,9082.1796875,9082.6015625,0.6640625,3.2052186634254567,586.6522451574627,4.07906829288348,2419.669184728813,16.858304799801218,1011.3665487338693,W
9081.9375,9082.3671875,9082.6015625,0.6640625,4.320089643789168,589.736772757046,0.29549760740303965,1370.9920774425427,35.10173148919402,1833.6204388125198,W
9081.9375,9082.5703125,9082.6015625,0.6640625,1.1076631999615054,585.5100740904444,4.875780449416958,924.2413188890722,160.46533996647,13616.898933762648,W
9082.609375,9082.65625,9083.203125,0.59375,12.541115863700737,581.6595960132032,152.2962959942025,13041.201237248497,19.11951397608135,1038.7957945923483,W
9082.609375,9082.75,9083.203125,0.59375,11.236296862064425,559.0055588016653,41.486719097542604,4185.97170335634,20.195674933038735,1203.7239458342679,W
9083.2109375,9083.5234375,9084.90625,1.6953125,6.363641868711243,298.796298421267,26.797442440546444,952.9083500734032,5.95355984818226,190.74647422063885,W
9083.2109375,9084.1015625,9084.90625,1.6953125,1.8202518796572387,160.73285368037736,4.301261219499519,179.33520242194962,4.5847201410616245,156.21364087591456,W
9084.9453125,9085.703125,9085.78125,0.8359375,0.7678072909117981,208.78186975707106,1.4072119524553328,228.86501537504765,5.397020814622655,2162.786984552953,W
9085.7890625,9085.8984375,9086.4296875,0.640625,3.173781905522785,538.7093197015798,17.224891743321248,4994.846101913993,4.438718479062434,1157.584891841559,W
9085.7890625,9086.0546875,9086.4296875,0.640625,3.9660979792882918,528.9977442379869,10.075439466131833,2020.1401108075297,8.4010273753798,1614.0143955392941,W
9085.7890625,9086.1484375,9086.4296875,0.640625,0.37218032166517717,503.4768169089651,2.553402572332095,1379.825653464214,1.5770040599313417,1519.001467803437,W
9085.7890625,9086.3828125,9086.4296875,0.640625,1.4117768775789732,520.111474537287,4.5500399977701,863.173897839198,47.51977794346326,9468.881502891489,W
9086.4375,9086.5,9086.75,0.3125,4.149436338706985,564.020353896751,46.40127964862677,8656.5024385235,21.47655552523941,2185.423670896292,W
9086.4375,9086.609375,9086.75,0.3125,6.345972773807217,584.8483724748917,29.653040949174724,3269.000267554091,22.56072850637952,4033.307991482409,W
9086.7578125,9087.1015625,9087.4140625,0.65625,23.908773468569176,220.70866734941407,98.68955926447966,593.0361141125682,160.9844867947026,620.8162845187866,W
9087.4609375,9087.7265625,9091.828125,4.3671875,6.0293522350111575,85.62314149028887,114.89841649843214,234.6655728332986,3.5836322625680426,17.595361898524988,W
9087.4609375,9091.7109375,9091.828125,4.3671875,2.327508684005999,103.15890794725277,6.3101290191507955,18.792660997837373,93.83806422130412,765.4762068811332,W
9091.8359375,9091.9765625,9092.0859375,0.25,28.85984576239021,157.2682387430576,138.5132187443411,1171.8434112528792,162.54246589639803,1302.1003047684728,W
9092.09375,9092.2734375,9092.4453125,0.3515625,36.47092796397901,385.4484984292591,252.91611751257702,2131.396107195933,252.63921339685714,2057.8993771582773,W
9092.453125,9092.5390625,9092.6953125,0.2421875,25.317673169715192,124.18176059853025,185.42516327659834,1578.3664883556319,96.04892875182148,769.9083337002427,W
9092.703125,9093.1015625,9095.6953125,2.9921875,1.2290157536520137,93.75673316876316,26.203574532248986,222.37890109595347,3.582750226919413,28.394191366038065,W
9095.71875,9095.8515625,9095.953125,0.234375,10.078385265631075,165.11570030212943,143.13569071798952,1092.6140105517347,157.4299855806387,1493.135127276069,W
9096.03125,9096.7890625,9096.921875,0.890625,10.95646939854416,240.11049387504636,26.627685820672045,303.058838214025,69.18803926697059,1665.6071789916282,W
9096.9296875,9097.0859375,9097.203125,0.2734375,34.432895336581915,428.57763056093677,220.50940118492403,2680.987673844588,117.861017400939,3241.0764909087247,W
9097.2109375,9097.328125,9097.5546875,0.34375,23.803315635783818,574.1045069097593,351.3328715206655,4857.202104190945,98.82055154832415,2471.6681581043754,W
9097.2109375,9097.40625,9097.5546875,0.34375,31.404763328077692,566.2404583166975,249.71913509694394,2874.057333718091,202.0411210271061,3719.5672823744726,W
9097.5625,9097.703125,9097.90625,0.34375,13.914179812884793,165.09321809855433,99.24109625019246,1154.9927789050528,41.96917072743953,720.1026899510475,W
9097.5625,9097.8671875,9097.90625,0.34375,5.776189273483574,78.7514064048153,19.094280601541232,249.69533649980394,9.907129974014378,1534.1836083857277,W
9097.9140625,9098.015625,9098.0859375,0.171875,0.22914055425120936,498.36128094648393,53.05083191919766,4915.958717697314,49.403486325469665,5591.269978561932,W
9098.09375,9098.1640625,9098.2265625,0.1328125,5.965062417979712,433.5830086082264,29.553446204149225,6542.644521687923,74.09528718021889,5829.302600823382,W
9098.234375,9098.296875,9101.2578125,3.0234375,1.8970961088884906,342.22035281826027,41.194522615284335,5410.862509593384,1.1914079941330438,107.26983737841422,W
9098.234375,9100.9140625,9101.2578125,3.0234375,1.5872814382016356,186.49837953800315,0.3394873035138818,68.08888483053691,0.12598417611107882,470.97399514877446,W
9101.265625,9101.390625,9101.578125,0.3125,2.2481460380356557,585.5451437139079,4.776791472558672,4664.255650392078,1.0396983337005306,2913.6364925288567,W
9101.265625,9101.5234375,9101.578125,0.3125,2.5114461268901143,569.4838083406645,3.3373053010396805,2199.1587720756997,8.379310197454775,9695.917841845343,W
9101.5859375,9101.625,9101.8984375,0.3125,1.4898034528154827,515.8361927153621,12.666229643138081,12414.105979674197,0.7670377448969905,1604.801180410224,W
9101.5859375,9101.859375,9101.8984375,0.3125,0.8044533927877051,600.1248772945435,4.315884454264169,2081.6994721287483,12.175697322432171,13391.39858809861,W
9101.90625,9101.96875,9102.21875,0.3125,1.6822160733595701,592.7401881982255,5.6443960549992305,9428.034192513094,5.242571154357836,2274.9928805634395,W
9101.90625,9102.1015625,9102.21875,0.3125,1.5964401200842853,573.1650177891382,1.3670338568302953,2916.7460691096635,11.916106597245813,4686.27669104446,W
9102.2265625,9102.546875,9102.6875,0.4609375,22.333282935870546,275.75267569092335,79.46659177384397,844.3731329838187,338.4894909148183,1544.8990088823766,W
9102.6953125,9102.84375,9105.71875,3.0234375,7.440914081558681,141.06600217603204,221.2992327710961,573.2302426316616,3.273222645872007,45.31151786960939,W
9102.6953125,9105.2890625,9105.71875,3.0234375,1.0084105681565405,110.24857481059959,9.407144179178548,20.923927431404266,2.2369523366790953,231.45468860438007,W
9105.7265625,9105.890625,9105.953125,0.2265625,4.134385027411964,128.75014441197214,12.563284247623415,793.8694965698576,11.804845795912307,1643.5859650299594,W
9105.9609375,9106.15625,9106.3046875,0.34375,4.435171765946078,571.4475210662891,38.636034200157845,2912.6299195543443,34.72090587845444,3625.3958200103425,W
9106.3125,9106.4453125,9106.5859375,0.2734375,6.3283481247459346,354.1733578530348,38.86024858731805,2655.068587663725,21.422464729846304,2424.4963491265466,W
9106.59375,9106.71875,9107.28125,0.6875,0.8974929893093535,171.9248554942344,16.944320995603185,1278.1710915389474,3.457810761908311,275.2798919469854,W
9110.4765625,9111.8203125,9113.5390625,3.0625,9.522353597289918,589.6555991236103,11.214623592807097,435.3439301573867,3.306445250311625,317.3343174643296,W
9110.4765625,9112.28125,9113.5390625,3.0625,13.049415095555219,585.4072880991779,10.304671557319391,321.7981479478059,7.322247371717491,430.2469939815228,W
9110.4765625,9112.609375,9113.5390625,3.0625,14.002680798406068,580.7777370112495,9.166289889031825,270.12010855929793,10.93193140177668,577.1191890064734,W
9110.4765625,9112.8125,9113.5390625,3.0625,14.202512860883159,583.9485814329777,8.45476803913965,247.9888218149483,14.263207965682712,742.8285115887262,W
9113.546875,9113.5859375,9113.7109375,0.1640625,4.454880942264531,538.9125886284422,185.25953299513614,12845.082425569086,2.970761098690488,3516.013672079693,W
9113.546875,9113.6640625,9113.7109375,0.1640625,9.130096477390103,583.7752460319618,101.64835023145027,4664.522151699729,107.65996101252017,10333.1064834876,W
9113.71875,9113.765625,9113.796875,0.078125,0.34885293032021014,210.9216714822503,74.08935412367835,4867.902210660772,48.475471584651764,4680.8480440148,W
9113.8046875,9114.2734375,9115.8515625,2.046875,15.943393067966248,580.6843638627643,29.871075697325306,1249.7380140877551,5.162329267611779,370.60773265218825,W
9113.8046875,9114.921875,9115.8515625,2.046875,19.94864187494679,577.1890666178903,16.118436287643554,521.2369426428073,13.071112263454527,625.339192843682,W
9115.859375,9116.828125,9117.8359375,1.9765625,5.495855841934806,413.54888784476185,13.543675695000747,416.3637200278666,4.957478545067189,358.0740318056305,W
9117.84375,9117.890625,9117.9296875,0.0859375,2.021238632704585,185.7066520479998,43.88674272319465,4423.879283639828,70.75643109700407,3939.0730468801726,W
9117.9375,9117.96875,9118.109375,0.171875,8.232850001367872,470.2552314984345,215.37478503650405,14885.352091469656,76.12685172656603,1707.0704068736225,W
9117.9375,9118.1015625,9118.109375,0.171875,0.8991776407819577,477.6757736264449,3.676710571856231,2880.5351313459023,431.57326892319134,31677.096716110533,W
9118.1171875,9118.1328125,9118.4921875,0.375,10.386880838728523,371.3144855169014,326.79927624960493,24368.48451156391,25.77779152507247,559.4810930431423,W
9118.1171875,9118.234375,9118.4921875,0.375,6.2820662939651,523.5278538949748,8.545486051299447,4548.018678368081,20.01097419465502,1370.2861040114526,W
9118.1171875,9118.328125,9118.4921875,0.375,6.902634416852211,554.96215139936,57.75775556352311,2586.164463042727,48.91807345528572,4420.346630728424,W
9118.1171875,9118.453125,9118.4921875,0.375,1.9803495257117438,518.5000197641269,9.824126873649718,1571.551567599365,21.948480417437207,8915.175732725882,W
9118.5,9118.5234375,9118.8125,0.3125,0.9304369279729956,485.0906492002597,66.80744280934381,21827.666994758278,9.434857272452122,1956.6433413819123,W
9118.5,9118.6875,9118.8125,0.3125,4.02373297618551,517.3217006955193,18.07130913767739,2617.74082509937,17.815251790722513,3494.5610722205606,W
9118.5,9118.78125,9118.8125,0.3125,3.5935429418983147,571.0320654204934,10.517974858763786,1936.1307357550436,57.494926065699794,15696.975960081412,W
9118.8203125,9118.8828125,9122.7578125,3.9375,0.3910528499615596,335.2130948305305,18.970927636146907,5681.678919638986,1.3723084028457255,82.98643758560834,W
9122.8828125,9123.1484375,9123.609375,0.7265625,13.940482366124199,575.9185284311094,77.8143925462582,2042.707913901948,8.152173934454341,1165.7120998446856,W
9122.8828125,9123.4609375,9123.609375,0.7265625,23.900673355367996,557.8471630596104,52.980997205351144,907.2828960150588,92.41487940821116,3498.0989012255036,W
9123.6171875,9123.6796875,9123.6953125,0.078125,2.9759821193248137,95.11340350611857,97.33214741513396,1555.9891938033907,71.4910008097394,1862.9520449693919,W
9123.703125,9123.765625,9123.8046875,0.1015625,1.779271250530352,283.71336463002814,54.19546124227155,4870.440212162604,125.08559942971041,4411.954854949786,W
9123.8125,9123.8515625,9126.203125,2.390625,15.910443050943085,516.5224392408397,198.18347460846803,13972.496541188506,1.6843538928271362,218.6857136388307,W
9123.8125,9125.0390625,9126.203125,2.390625,20.065802645551948,578.6024312077618,9.699384720715125,495.596953361201,6.97232583792552,495.10495823526213,W
9123.8125,9125.5546875,9126.203125,2.390625,24.34241015760707,575.5947570688498,9.283449160068745,347.1916564481068,19.11183507703564,884.164535991245,W
9126.2109375,9126.6953125,9128.71875,2.5078125,5.597170254187724,590.9358062988439,35.679749555835684,1203.6649806958671,2.1972070442632736,269.5787453368444,W
9126.2109375,9128.4921875,9128.71875,2.5078125,19.162135634887807,577.3584718717698,13.522123428737748,249.62099313862424,40.2496187677732,2347.6895253647317,W
9128.7265625,9128.765625,9128.796875,0.0703125,8.17839292702722,119.16711464672386,33.11199953995542,2830.0298797580035,13.283631371886031,2471.7126502253695,W
9128.8046875,9128.890625,9128.9765625,0.171875,10.84073428370207,537.0483865377763,23.296784904579454,6260.34913613616,85.77832009702637,5606.414368232944,W
9128.984375,9129.546875,9131.4453125,2.4609375,14.389444167724903,584.5564058933095,30.34853616488084,1011.3475853587398,2.6715227714110767,308.9166732334817,W
9128.984375,9130.6796875,9131.4453125,2.4609375,23.381007389832444,573.6229517704971,15.373339614291178,329.1131060742363,18.36836863145568,751.7068313062864,W
9131.453125,9132.2890625,9135.6953125,4.2421875,7.274661716980908,574.3981658654632,19.65385648909753,677.5502176692002,2.48663786946519,158.35212607809373,W
9131.453125,9132.484375,9135.6953125,4.2421875,8.655933883840495,582.3099264711283,17.27095061887472,556.8983230918906,3.068070434172385,170.44825383837957,W
9131.453125,9135.0390625,9135.6953125,4.2421875,0.8864484363550666,91.20763023790218,2.305752820711179,23.20149178709502,0.47085727928355003,85.6326001157269,W
9135.71875,9135.828125,9135.8984375,0.1796875,1.5447099556790695,116.84436824603193,23.942769912625035,732.0377495077438,53.67805718167324,1263.0494423566856,W
9135.90625,9135.984375,9136.1015625,0.1953125,11.276303438592931,140.07982957504416,102.63546146025696,1872.8433054890738,31.74444403591484,1093.155386980509,W
9136.109375,9136.2890625,9136.4375,0.328125,8.988566335195264,222.26217200001776,88.49537131297001,1236.322140757309,46.77351417715952,1431.8725039457377,W
9136.4453125,9136.6015625,9136.640625,0.1953125,6.683004126694881,147.56844914681398,51.42797935382957,898.0955040693823,45.689377760622826,2259.8150946025885,W
9136.6484375,9136.7578125,9136.8125,0.1640625,1.8668106615559161,521.7921090908843,58.17788078564462,4937.067301620812,34.75718181554354,7518.574912759886,W
9136.8203125,9136.8828125,9136.9609375,0.140625,3.2555604070582316,593.0290798933524,43.06980202295885,9679.693126276543,63.776481579809456,6836.78773506546,W
9136.8203125,9136.90625,9136.9609375,0.140625,2.3745213808460015,558.6643506282201,21.071401893500482,6639.896333115946,74.99883149184701,9138.45600067395,W
9136.96875,9137.0390625,9137.234375,0.265625,4.900067705521542,500.5691635464661,36.22497328367789,6643.96929415892,8.387988427085904,2216.3748480975396,W
9137.2421875,9137.3203125,9137.359375,0.1171875,2.542676427080422,309.1040136367751,6.055239070309102,4132.295662755707,44.535760600449564,5278.904390756655,W
9137.3671875,9137.46875,9137.8515625,0.484375,9.85332580476283,541.822718088882,50.43316645252202,5616.617908835974,32.44159698786757,1371.1199825916672,W
9137.859375,9138.046875,9138.453125,0.59375,27.28826481548255,490.56695163601074,127.68430831459187,2639.4950599032372,37.33010878271505,1103.4066504375862,W
9138.4609375,9138.6640625,9139.3515625,0.890625,32.748495921632916,563.0179717895347,206.28751737944626,2794.639641139596,58.00856592288294,802.2541287645107,W
9138.4609375,9138.84375,9139.3515625,0.890625,29.14432999111447,569.745328355925,100.04371862773962,1500.4435165332134,71.43723941703597,1099.3763841811524,W
9139.6015625,9139.90625,9140.1484375,0.546875,81.57308976241262,437.7425371357458,330.5095440903927,1374.4288666843279,284.5616508898934,1802.3441633695213,W
9140.15625,9140.5859375,9141.03125,0.875,2.644710887605879,339.26238882717394,16.953184715098782,761.2460124402146,49.92320300621406,693.6155182201496,W
9141.484375,9142.3203125,9143.515625,2.03125,13.372707441552492,134.99301981949029,37.78173133395294,141.21879556399276,24.208701012639672,92.28702201002925,W
9141.484375,9142.7265625,9143.515625,2.03125,16.08291814131894,127.86012488907798,27.60724668115138,89.29182751103427,40.10730915350471,130.76142392516533,W
9141.484375,9143.015625,9143.515625,2.03125,20.106325884500073,125.72361388429917,25.02320619097069,71.04044472266715,71.34116274423687,202.08485012234394,W
9141.484375,9143.4375,9143.515625,2.03125,11.859321431310148,69.27782503841874,15.395727373687777,26.795464773480266,351.02178456228495,570.8369435557318,W
9143.625,9143.765625,9144.0625,0.4375,72.25173272398968,215.45439249485096,714.4176671359542,1365.4577000112058,286.7126477667694,664.010503387766,W
9144.296875,9144.515625,9145.0703125,0.7734375,11.800711057645968,132.8198503157128,109.61429372296259,551.7870057603931,35.90761211823081,154.83077902082692,W
9148.265625,9148.65625,9148.90625,0.640625,6.93010470042718,86.76860044085863,8.647112477798858,225.2327796434833,8.440603006019447,318.5028734334874,W
9148.9140625,9149.28125,9149.5625,0.6484375,9.257068127204015,281.89233647895105,37.483130943828556,763.4087561147461,30.053437328123678,965.3754150177073,W
9149.5703125,9149.828125,9150.1484375,0.578125,10.230665602649683,214.83190645458328,40.963457992748815,825.239881615633,19.59322576477949,654.2137310371158,W
9150.15625,9150.4375,9155.2890625,5.1328125,1.4196507617069287,112.06170505861493,18.07803225965565,391.2111661661281,4.8274645840076795,17.02015265579106,W
9150.15625,9155.046875,9155.2890625,5.1328125,30.198241420271632,341.3504267519847,6.924071510613236,69.38108364014687,215.53274551500164,1287.692618580567,W
9155.4453125,9155.609375,9156.6640625,1.21875,9.701320955001577,193.83951381376036,233.0945410248128,996.9182562190115,11.428605897533206,180.30395920375082,W
9156.671875,9158.328125,9160.2890625,3.6171875,2.7425185459935797,91.81179561706915,0.24297803430950907,57.03342765274174,0.6920934130768291,47.25267758766226,W
9160.296875,9163.3203125,9165.546875,5.25,0.497850758039195,165.19318512105522,0.6196650709026441,54.111491230867415,7.798707622947516,58.927143246978034,W
9160.296875,9165.0390625,9165.546875,5.25,18.754126232242676,165.31110631517353,4.244833019995665,34.524285039856395,70.14515281904751,258.60507289593664,W
9165.5546875,9165.640625,9165.75,0.1953125,93.2168569468757,47.40380026032386,796.0021720211843,839.7996753703817,537.1923741461604,626.7844201011233,W
9165.7578125,9166.015625,9167.4453125,1.6875,16.69632550457486,97.60360821405995,179.02404564193608,273.74617236809604,26.373327597748187,27.55558606405396,W
9167.453125,9167.6015625,9167.71875,0.265625,5.459645069576187,86.39425532451453,180.07084217795392,190.23220897158598,257.3966596007168,211.96636254064293,W
9167.7265625,9168.15625,9168.9453125,1.21875,66.92283306946882,132.46707960529935,215.158671531521,165.9494430712451,141.12554426604828,106.10367149659693,W
9168.96875,9169.1328125,9169.34375,0.375,9.55174030812709,81.60289201926835,327.23788325752105,211.5388164041639,95.69564409487784,185.6452530881509,W
9169.3515625,9169.578125,9170.3828125,1.03125,93.09992830795102,213.01817755334997,457.5513160878162,754.4372647869201,140.0944982487155,216.71406886948955,W
9169.3515625,9170.1953125,9170.3828125,1.03125,3.4423873199075237,88.81548911968403,16.600212222936133,55.37719036399484,123.06533638117209,267.6502072520076,W
